# === DATA DESCRIPTION FILE ======================================================
#
# CAUTION - Investigational device.
# Limited by Federal Law to investigational use.
#
#
# CLINICAL TRYOUT             Research image export tool     V4.2
#
# === GENERAL INFORMATION ========================================================
#
.    Protocol name                      :   WIP 3D FLAIR Sag UMich SENSE
.    Series Type                        :   Image   MRSERIES
.    Acquisition nr                     :   4
.    Reconstruction nr                  :   1
.    Scan Duration [sec]                :   528
.    Max. number of cardiac phases      :   1
.    Max. number of echoes              :   1
.    Max. number of slices/locations    :   327
.    Max. number of dynamics            :   1
.    Max. number of mixes               :   1
.    Patient position                   :   Head First Supine
.    Preparation direction              :   Anterior-Posterior
.    Technique                          :   TIR
.    Scan resolution  (x, y)            :   216  220
.    Scan mode                          :   3D
.    Repetition time [ms]               :   8000.000  
.    FOV (ap,fh,rl) [mm]                :   240.000  200.000  179.850
.    Water Fat shift [pixels]           :   0.858
.    Angulation midslice(ap,fh,rl)[degr]:   -3.133  0.191  -0.303
.    Off Centre midslice(ap,fh,rl) [mm] :   -19.332  12.229  -1.864
.    Flow compensation <0=no 1=yes> ?   :   1
.    Presaturation     <0=no 1=yes> ?   :   0
.    Phase encoding velocity [cm/sec]   :   0.000000  0.000000  0.000000
.    MTC               <0=no 1=yes> ?   :   0
.    SPIR              <0=no 1=yes> ?   :   1
.    EPI factor        <0,1=no EPI>     :   1
.    Dynamic scan      <0=no 1=yes> ?   :   0
.    Diffusion         <0=no 1=yes> ?   :   0
.    Diffusion echo time [ms]           :   0.0000
.    Max. number of diffusion values    :   1
.    Max. number of gradient orients    :   1
.    Number of label types   <0=no ASL> :   0
#
# === PIXEL VALUES =============================================================
#  PV = pixel value in REC file, FP = floating point value, DV = displayed value on console
#  RS = rescale slope,           RI = rescale intercept,    SS = scale slope
#  DV = PV * RS + RI             FP = DV / (RS * SS)
#
# === IMAGE INFORMATION DEFINITION =============================================
#  The rest of this file contains ONE line per image, this line contains the following information:
#
#  slice number                             (integer)
#  echo number                              (integer)
#  dynamic scan number                      (integer)
#  cardiac phase number                     (integer)
#  image_type_mr                            (integer)
#  scanning sequence                        (integer)
#  index in REC file (in images)            (integer)
#  image pixel size (in bits)               (integer)
#  scan percentage                          (integer)
#  recon resolution (x y)                   (2*integer)
#  rescale intercept                        (float)
#  rescale slope                            (float)
#  scale slope                              (float)
#  window center                            (integer)
#  window width                             (integer)
#  image angulation (ap,fh,rl in degrees )  (3*float)
#  image offcentre (ap,fh,rl in mm )        (3*float)
#  slice thickness (in mm )                 (float)
#  slice gap (in mm )                       (float)
#  image_display_orientation                (integer)
#  slice orientation ( TRA/SAG/COR )        (integer)
#  fmri_status_indication                   (integer)
#  image_type_ed_es  (end diast/end syst)   (integer)
#  pixel spacing (x,y) (in mm)              (2*float)
#  echo_time                                (float)
#  dyn_scan_begin_time                      (float)
#  trigger_time                             (float)
#  diffusion_b_factor                       (float)
#  number of averages                       (integer)
#  image_flip_angle (in degrees)            (float)
#  cardiac frequency   (bpm)                (integer)
#  minimum RR-interval (in ms)              (integer)
#  maximum RR-interval (in ms)              (integer)
#  TURBO factor  <0=no turbo>               (integer)
#  Inversion delay (in ms)                  (float)
#  diffusion b value number    (imagekey!)  (integer)
#  gradient orientation number (imagekey!)  (integer)
#  contrast type                            (string)
#  diffusion anisotropy type                (string)
#  diffusion (ap, fh, rl)                   (3*float)
#  label type (ASL)            (imagekey!)  (integer)
#
# === IMAGE INFORMATION ==========================================================
#  sl ec  dyn ph ty    idx pix scan% rec size                (re)scale              window        angulation              offcentre        thick   gap   info      spacing     echo     dtime   ttime    diff  avg  flip    freq   RR-int  turbo delay b grad cont anis         diffusion       L.ty

  1   1    1  1 0 0     0  16    79  576  576     0.00000   7.43858 1.03747e-003    36    63  -3.13   0.19  -0.30  -19.01   17.13   87.65  1.100 -0.550 0 2 0 2  0.417  0.417 330.91    0.00     0.00    0.00   1   90.00     0    0    0   110 2400.0  1   1    8    0   0.000    0.000    0.000  1
  2   1    1  1 0 0     1  16    79  576  576     0.00000   7.43858 1.03747e-003    61   107  -3.13   0.19  -0.30  -19.01   17.10   87.10  1.100 -0.550 0 2 0 2  0.417  0.417 330.91    0.00     0.00    0.00   1   90.00     0    0    0   110 2400.0  1   1    8    0   0.000    0.000    0.000  1
  3   1    1  1 0 0     2  16    79  576  576     0.00000   7.43858 1.03747e-003    63   109  -3.13   0.19  -0.30  -19.01   17.07   86.55  1.100 -0.550 0 2 0 2  0.417  0.417 330.91    0.00     0.00    0.00   1   90.00     0    0    0   110 2400.0  1   1    8    0   0.000    0.000    0.000  1
  4   1    1  1 0 0     3  16    79  576  576     0.00000   7.43858 1.03747e-003    72   125  -3.13   0.19  -0.30  -19.01   17.04   86.00  1.100 -0.550 0 2 0 2  0.417  0.417 330.91    0.00     0.00    0.00   1   90.00     0    0    0   110 2400.0  1   1    8    0   0.000    0.000    0.000  1
  5   1    1  1 0 0     4  16    79  576  576     0.00000   7.43858 1.03747e-003   103   179  -3.13   0.19  -0.30  -19.02   17.01   85.45  1.100 -0.550 0 2 0 2  0.417  0.417 330.91    0.00     0.00    0.00   1   90.00     0    0    0   110 2400.0  1   1    8    0   0.000    0.000    0.000  1
  6   1    1  1 0 0     5  16    79  576  576     0.00000   7.43858 1.03747e-003   214   372  -3.13   0.19  -0.30  -19.02   16.98   84.91  1.100 -0.550 0 2 0 2  0.417  0.417 330.91    0.00     0.00    0.00   1   90.00     0    0    0   110 2400.0  1   1    8    0   0.000    0.000    0.000  1
  7   1    1  1 0 0     6  16    79  576  576     0.00000   7.43858 1.03747e-003   255   443  -3.13   0.19  -0.30  -19.02   16.95   84.36  1.100 -0.550 0 2 0 2  0.417  0.417 330.91    0.00     0.00    0.00   1   90.00     0    0    0   110 2400.0  1   1    8    0   0.000    0.000    0.000  1
  8   1    1  1 0 0     7  16    79  576  576     0.00000   7.43858 1.03747e-003   303   527  -3.13   0.19  -0.30  -19.02   16.92   83.81  1.100 -0.550 0 2 0 2  0.417  0.417 330.91    0.00     0.00    0.00   1   90.00     0    0    0   110 2400.0  1   1    8    0   0.000    0.000    0.000  1
  9   1    1  1 0 0     8  16    79  576  576     0.00000   7.43858 1.03747e-003   329   572  -3.13   0.19  -0.30  -19.02   16.89   83.26  1.100 -0.550 0 2 0 2  0.417  0.417 330.91    0.00     0.00    0.00   1   90.00     0    0    0   110 2400.0  1   1    8    0   0.000    0.000    0.000  1
 10   1    1  1 0 0     9  16    79  576  576     0.00000   7.43858 1.03747e-003   350   609  -3.13   0.19  -0.30  -19.03   16.86   82.71  1.100 -0.550 0 2 0 2  0.417  0.417 330.91    0.00     0.00    0.00   1   90.00     0    0    0   110 2400.0  1   1    8    0   0.000    0.000    0.000  1
 11   1    1  1 0 0    10  16    79  576  576     0.00000   7.43858 1.03747e-003   371   645  -3.13   0.19  -0.30  -19.03   16.83   82.16  1.100 -0.550 0 2 0 2  0.417  0.417 330.91    0.00     0.00    0.00   1   90.00     0    0    0   110 2400.0  1   1    8    0   0.000    0.000    0.000  1
 12   1    1  1 0 0    11  16    79  576  576     0.00000   7.43858 1.03747e-003   382   664  -3.13   0.19  -0.30  -19.03   16.80   81.61  1.100 -0.550 0 2 0 2  0.417  0.417 330.91    0.00     0.00    0.00   1   90.00     0    0    0   110 2400.0  1   1    8    0   0.000    0.000    0.000  1
 13   1    1  1 0 0    12  16    79  576  576     0.00000   7.43858 1.03747e-003   392   682  -3.13   0.19  -0.30  -19.03   16.77   81.06  1.100 -0.550 0 2 0 2  0.417  0.417 330.91    0.00     0.00    0.00   1   90.00     0    0    0   110 2400.0  1   1    8    0   0.000    0.000    0.000  1
 14   1    1  1 0 0    13  16    79  576  576     0.00000   7.43858 1.03747e-003   402   699  -3.13   0.19  -0.30  -19.03   16.74   80.51  1.100 -0.550 0 2 0 2  0.417  0.417 330.91    0.00     0.00    0.00   1   90.00     0    0    0   110 2400.0  1   1    8    0   0.000    0.000    0.000  1
 15   1    1  1 0 0    14  16    79  576  576     0.00000   7.43858 1.03747e-003   422   734  -3.13   0.19  -0.30  -19.04   16.71   79.96  1.100 -0.550 0 2 0 2  0.417  0.417 330.91    0.00     0.00    0.00   1   90.00     0    0    0   110 2400.0  1   1    8    0   0.000    0.000    0.000  1
 16   1    1  1 0 0    15  16    79  576  576     0.00000   7.43858 1.03747e-003   434   755  -3.13   0.19  -0.30  -19.04   16.68   79.41  1.100 -0.550 0 2 0 2  0.417  0.417 330.91    0.00     0.00    0.00   1   90.00     0    0    0   110 2400.0  1   1    8    0   0.000    0.000    0.000  1
 17   1    1  1 0 0    16  16    79  576  576     0.00000   7.43858 1.03747e-003   439   763  -3.13   0.19  -0.30  -19.04   16.65   78.86  1.100 -0.550 0 2 0 2  0.417  0.417 330.91    0.00     0.00    0.00   1   90.00     0    0    0   110 2400.0  1   1    8    0   0.000    0.000    0.000  1
 18   1    1  1 0 0    17  16    79  576  576     0.00000   7.43858 1.03747e-003   438   762  -3.13   0.19  -0.30  -19.04   16.62   78.32  1.100 -0.550 0 2 0 2  0.417  0.417 330.91    0.00     0.00    0.00   1   90.00     0    0    0   110 2400.0  1   1    8    0   0.000    0.000    0.000  1
 19   1    1  1 0 0    18  16    79  576  576     0.00000   7.43858 1.03747e-003   423   735  -3.13   0.19  -0.30  -19.04   16.59   77.77  1.100 -0.550 0 2 0 2  0.417  0.417 330.91    0.00     0.00    0.00   1   90.00     0    0    0   110 2400.0  1   1    8    0   0.000    0.000    0.000  1
 20   1    1  1 0 0    19  16    79  576  576     0.00000   7.43858 1.03747e-003   434   754  -3.13   0.19  -0.30  -19.05   16.56   77.22  1.100 -0.550 0 2 0 2  0.417  0.417 330.91    0.00     0.00    0.00   1   90.00     0    0    0   110 2400.0  1   1    8    0   0.000    0.000    0.000  1
 21   1    1  1 0 0    20  16    79  576  576     0.00000   7.43858 1.03747e-003   431   750  -3.13   0.19  -0.30  -19.05   16.53   76.67  1.100 -0.550 0 2 0 2  0.417  0.417 330.91    0.00     0.00    0.00   1   90.00     0    0    0   110 2400.0  1   1    8    0   0.000    0.000    0.000  1
 22   1    1  1 0 0    21  16    79  576  576     0.00000   7.43858 1.03747e-003   435   757  -3.13   0.19  -0.30  -19.05   16.50   76.12  1.100 -0.550 0 2 0 2  0.417  0.417 330.91    0.00     0.00    0.00   1   90.00     0    0    0   110 2400.0  1   1    8    0   0.000    0.000    0.000  1
 23   1    1  1 0 0    22  16    79  576  576     0.00000   7.43858 1.03747e-003   446   776  -3.13   0.19  -0.30  -19.05   16.47   75.57  1.100 -0.550 0 2 0 2  0.417  0.417 330.91    0.00     0.00    0.00   1   90.00     0    0    0   110 2400.0  1   1    8    0   0.000    0.000    0.000  1
 24   1    1  1 0 0    23  16    79  576  576     0.00000   7.43858 1.03747e-003   457   794  -3.13   0.19  -0.30  -19.05   16.44   75.02  1.100 -0.550 0 2 0 2  0.417  0.417 330.91    0.00     0.00    0.00   1   90.00     0    0    0   110 2400.0  1   1    8    0   0.000    0.000    0.000  1
 25   1    1  1 0 0    24  16    79  576  576     0.00000   7.43858 1.03747e-003   485   844  -3.13   0.19  -0.30  -19.06   16.41   74.47  1.100 -0.550 0 2 0 2  0.417  0.417 330.91    0.00     0.00    0.00   1   90.00     0    0    0   110 2400.0  1   1    8    0   0.000    0.000    0.000  1
 26   1    1  1 0 0    25  16    79  576  576     0.00000   7.43858 1.03747e-003   530   921  -3.13   0.19  -0.30  -19.06   16.37   73.92  1.100 -0.550 0 2 0 2  0.417  0.417 330.91    0.00     0.00    0.00   1   90.00     0    0    0   110 2400.0  1   1    8    0   0.000    0.000    0.000  1
 27   1    1  1 0 0    26  16    79  576  576     0.00000   7.43858 1.03747e-003   561   974  -3.13   0.19  -0.30  -19.06   16.34   73.37  1.100 -0.550 0 2 0 2  0.417  0.417 330.91    0.00     0.00    0.00   1   90.00     0    0    0   110 2400.0  1   1    8    0   0.000    0.000    0.000  1
 28   1    1  1 0 0    27  16    79  576  576     0.00000   7.43858 1.03747e-003   583  1014  -3.13   0.19  -0.30  -19.06   16.31   72.82  1.100 -0.550 0 2 0 2  0.417  0.417 330.91    0.00     0.00    0.00   1   90.00     0    0    0   110 2400.0  1   1    8    0   0.000    0.000    0.000  1
 29   1    1  1 0 0    28  16    79  576  576     0.00000   7.43858 1.03747e-003   617  1072  -3.13   0.19  -0.30  -19.06   16.28   72.27  1.100 -0.550 0 2 0 2  0.417  0.417 330.91    0.00     0.00    0.00   1   90.00     0    0    0   110 2400.0  1   1    8    0   0.000    0.000    0.000  1
 30   1    1  1 0 0    29  16    79  576  576     0.00000   7.43858 1.03747e-003   650  1131  -3.13   0.19  -0.30  -19.07   16.25   71.73  1.100 -0.550 0 2 0 2  0.417  0.417 330.91    0.00     0.00    0.00   1   90.00     0    0    0   110 2400.0  1   1    8    0   0.000    0.000    0.000  1
 31   1    1  1 0 0    30  16    79  576  576     0.00000   7.43858 1.03747e-003   658  1144  -3.13   0.19  -0.30  -19.07   16.22   71.18  1.100 -0.550 0 2 0 2  0.417  0.417 330.91    0.00     0.00    0.00   1   90.00     0    0    0   110 2400.0  1   1    8    0   0.000    0.000    0.000  1
 32   1    1  1 0 0    31  16    79  576  576     0.00000   7.43858 1.03747e-003   640  1112  -3.13   0.19  -0.30  -19.07   16.19   70.63  1.100 -0.550 0 2 0 2  0.417  0.417 330.91    0.00     0.00    0.00   1   90.00     0    0    0   110 2400.0  1   1    8    0   0.000    0.000    0.000  1
 33   1    1  1 0 0    32  16    79  576  576     0.00000   7.43858 1.03747e-003   623  1083  -3.13   0.19  -0.30  -19.07   16.16   70.08  1.100 -0.550 0 2 0 2  0.417  0.417 330.91    0.00     0.00    0.00   1   90.00     0    0    0   110 2400.0  1   1    8    0   0.000    0.000    0.000  1
 34   1    1  1 0 0    33  16    79  576  576     0.00000   7.43858 1.03747e-003   628  1092  -3.13   0.19  -0.30  -19.07   16.13   69.53  1.100 -0.550 0 2 0 2  0.417  0.417 330.91    0.00     0.00    0.00   1   90.00     0    0    0   110 2400.0  1   1    8    0   0.000    0.000    0.000  1
 35   1    1  1 0 0    34  16    79  576  576     0.00000   7.43858 1.03747e-003   633  1101  -3.13   0.19  -0.30  -19.08   16.10   68.98  1.100 -0.550 0 2 0 2  0.417  0.417 330.91    0.00     0.00    0.00   1   90.00     0    0    0   110 2400.0  1   1    8    0   0.000    0.000    0.000  1
 36   1    1  1 0 0    35  16    79  576  576     0.00000   7.43858 1.03747e-003   631  1096  -3.13   0.19  -0.30  -19.08   16.07   68.43  1.100 -0.550 0 2 0 2  0.417  0.417 330.91    0.00     0.00    0.00   1   90.00     0    0    0   110 2400.0  1   1    8    0   0.000    0.000    0.000  1
 37   1    1  1 0 0    36  16    79  576  576     0.00000   7.43858 1.03747e-003   648  1127  -3.13   0.19  -0.30  -19.08   16.04   67.88  1.100 -0.550 0 2 0 2  0.417  0.417 330.91    0.00     0.00    0.00   1   90.00     0    0    0   110 2400.0  1   1    8    0   0.000    0.000    0.000  1
 38   1    1  1 0 0    37  16    79  576  576     0.00000   7.43858 1.03747e-003   691  1201  -3.13   0.19  -0.30  -19.08   16.01   67.33  1.100 -0.550 0 2 0 2  0.417  0.417 330.91    0.00     0.00    0.00   1   90.00     0    0    0   110 2400.0  1   1    8    0   0.000    0.000    0.000  1
 39   1    1  1 0 0    38  16    79  576  576     0.00000   7.43858 1.03747e-003   706  1227  -3.13   0.19  -0.30  -19.08   15.98   66.78  1.100 -0.550 0 2 0 2  0.417  0.417 330.91    0.00     0.00    0.00   1   90.00     0    0    0   110 2400.0  1   1    8    0   0.000    0.000    0.000  1
 40   1    1  1 0 0    39  16    79  576  576     0.00000   7.43858 1.03747e-003   727  1264  -3.13   0.19  -0.30  -19.09   15.95   66.23  1.100 -0.550 0 2 0 2  0.417  0.417 330.91    0.00     0.00    0.00   1   90.00     0    0    0   110 2400.0  1   1    8    0   0.000    0.000    0.000  1
 41   1    1  1 0 0    40  16    79  576  576     0.00000   7.43858 1.03747e-003   737  1281  -3.13   0.19  -0.30  -19.09   15.92   65.68  1.100 -0.550 0 2 0 2  0.417  0.417 330.91    0.00     0.00    0.00   1   90.00     0    0    0   110 2400.0  1   1    8    0   0.000    0.000    0.000  1
 42   1    1  1 0 0    41  16    79  576  576     0.00000   7.43858 1.03747e-003   748  1300  -3.13   0.19  -0.30  -19.09   15.89   65.14  1.100 -0.550 0 2 0 2  0.417  0.417 330.91    0.00     0.00    0.00   1   90.00     0    0    0   110 2400.0  1   1    8    0   0.000    0.000    0.000  1
 43   1    1  1 0 0    42  16    79  576  576     0.00000   7.43858 1.03747e-003   781  1358  -3.13   0.19  -0.30  -19.09   15.86   64.59  1.100 -0.550 0 2 0 2  0.417  0.417 330.91    0.00     0.00    0.00   1   90.00     0    0    0   110 2400.0  1   1    8    0   0.000    0.000    0.000  1
 44   1    1  1 0 0    43  16    79  576  576     0.00000   7.43858 1.03747e-003   793  1378  -3.13   0.19  -0.30  -19.09   15.83   64.04  1.100 -0.550 0 2 0 2  0.417  0.417 330.91    0.00     0.00    0.00   1   90.00     0    0    0   110 2400.0  1   1    8    0   0.000    0.000    0.000  1
 45   1    1  1 0 0    44  16    79  576  576     0.00000   7.43858 1.03747e-003   798  1387  -3.13   0.19  -0.30  -19.10   15.80   63.49  1.100 -0.550 0 2 0 2  0.417  0.417 330.91    0.00     0.00    0.00   1   90.00     0    0    0   110 2400.0  1   1    8    0   0.000    0.000    0.000  1
 46   1    1  1 0 0    45  16    79  576  576     0.00000   7.43858 1.03747e-003   810  1409  -3.13   0.19  -0.30  -19.10   15.77   62.94  1.100 -0.550 0 2 0 2  0.417  0.417 330.91    0.00     0.00    0.00   1   90.00     0    0    0   110 2400.0  1   1    8    0   0.000    0.000    0.000  1
 47   1    1  1 0 0    46  16    79  576  576     0.00000   7.43858 1.03747e-003   833  1447  -3.13   0.19  -0.30  -19.10   15.74   62.39  1.100 -0.550 0 2 0 2  0.417  0.417 330.91    0.00     0.00    0.00   1   90.00     0    0    0   110 2400.0  1   1    8    0   0.000    0.000    0.000  1
 48   1    1  1 0 0    47  16    79  576  576     0.00000   7.43858 1.03747e-003   848  1475  -3.13   0.19  -0.30  -19.10   15.71   61.84  1.100 -0.550 0 2 0 2  0.417  0.417 330.91    0.00     0.00    0.00   1   90.00     0    0    0   110 2400.0  1   1    8    0   0.000    0.000    0.000  1
 49   1    1  1 0 0    48  16    79  576  576     0.00000   7.43858 1.03747e-003   886  1541  -3.13   0.19  -0.30  -19.10   15.68   61.29  1.100 -0.550 0 2 0 2  0.417  0.417 330.91    0.00     0.00    0.00   1   90.00     0    0    0   110 2400.0  1   1    8    0   0.000    0.000    0.000  1
 50   1    1  1 0 0    49  16    79  576  576     0.00000   7.43858 1.03747e-003   902  1568  -3.13   0.19  -0.30  -19.11   15.65   60.74  1.100 -0.550 0 2 0 2  0.417  0.417 330.91    0.00     0.00    0.00   1   90.00     0    0    0   110 2400.0  1   1    8    0   0.000    0.000    0.000  1
 51   1    1  1 0 0    50  16    79  576  576     0.00000   7.43858 1.03747e-003   918  1596  -3.13   0.19  -0.30  -19.11   15.62   60.19  1.100 -0.550 0 2 0 2  0.417  0.417 330.91    0.00     0.00    0.00   1   90.00     0    0    0   110 2400.0  1   1    8    0   0.000    0.000    0.000  1
 52   1    1  1 0 0    51  16    79  576  576     0.00000   7.43858 1.03747e-003   930  1616  -3.13   0.19  -0.30  -19.11   15.59   59.64  1.100 -0.550 0 2 0 2  0.417  0.417 330.91    0.00     0.00    0.00   1   90.00     0    0    0   110 2400.0  1   1    8    0   0.000    0.000    0.000  1
 53   1    1  1 0 0    52  16    79  576  576     0.00000   7.43858 1.03747e-003   945  1642  -3.13   0.19  -0.30  -19.11   15.56   59.09  1.100 -0.550 0 2 0 2  0.417  0.417 330.91    0.00     0.00    0.00   1   90.00     0    0    0   110 2400.0  1   1    8    0   0.000    0.000    0.000  1
 54   1    1  1 0 0    53  16    79  576  576     0.00000   7.43858 1.03747e-003   979  1701  -3.13   0.19  -0.30  -19.11   15.53   58.55  1.100 -0.550 0 2 0 2  0.417  0.417 330.91    0.00     0.00    0.00   1   90.00     0    0    0   110 2400.0  1   1    8    0   0.000    0.000    0.000  1
 55   1    1  1 0 0    54  16    79  576  576     0.00000   7.43858 1.03747e-003   993  1727  -3.13   0.19  -0.30  -19.12   15.50   58.00  1.100 -0.550 0 2 0 2  0.417  0.417 330.91    0.00     0.00    0.00   1   90.00     0    0    0   110 2400.0  1   1    8    0   0.000    0.000    0.000  1
 56   1    1  1 0 0    55  16    79  576  576     0.00000   7.43858 1.03747e-003  1012  1760  -3.13   0.19  -0.30  -19.12   15.47   57.45  1.100 -0.550 0 2 0 2  0.417  0.417 330.91    0.00     0.00    0.00   1   90.00     0    0    0   110 2400.0  1   1    8    0   0.000    0.000    0.000  1
 57   1    1  1 0 0    56  16    79  576  576     0.00000   7.43858 1.03747e-003  1049  1824  -3.13   0.19  -0.30  -19.12   15.44   56.90  1.100 -0.550 0 2 0 2  0.417  0.417 330.91    0.00     0.00    0.00   1   90.00     0    0    0   110 2400.0  1   1    8    0   0.000    0.000    0.000  1
 58   1    1  1 0 0    57  16    79  576  576     0.00000   7.43858 1.03747e-003  1076  1870  -3.13   0.19  -0.30  -19.12   15.41   56.35  1.100 -0.550 0 2 0 2  0.417  0.417 330.91    0.00     0.00    0.00   1   90.00     0    0    0   110 2400.0  1   1    8    0   0.000    0.000    0.000  1
 59   1    1  1 0 0    58  16    79  576  576     0.00000   7.43858 1.03747e-003  1058  1839  -3.13   0.19  -0.30  -19.12   15.38   55.80  1.100 -0.550 0 2 0 2  0.417  0.417 330.91    0.00     0.00    0.00   1   90.00     0    0    0   110 2400.0  1   1    8    0   0.000    0.000    0.000  1
 60   1    1  1 0 0    59  16    79  576  576     0.00000   7.43858 1.03747e-003  1099  1911  -3.13   0.19  -0.30  -19.13   15.35   55.25  1.100 -0.550 0 2 0 2  0.417  0.417 330.91    0.00     0.00    0.00   1   90.00     0    0    0   110 2400.0  1   1    8    0   0.000    0.000    0.000  1
 61   1    1  1 0 0    60  16    79  576  576     0.00000   7.43858 1.03747e-003  1116  1940  -3.13   0.19  -0.30  -19.13   15.32   54.70  1.100 -0.550 0 2 0 2  0.417  0.417 330.91    0.00     0.00    0.00   1   90.00     0    0    0   110 2400.0  1   1    8    0   0.000    0.000    0.000  1
 62   1    1  1 0 0    61  16    79  576  576     0.00000   7.43858 1.03747e-003  1140  1981  -3.13   0.19  -0.30  -19.13   15.29   54.15  1.100 -0.550 0 2 0 2  0.417  0.417 330.91    0.00     0.00    0.00   1   90.00     0    0    0   110 2400.0  1   1    8    0   0.000    0.000    0.000  1
 63   1    1  1 0 0    62  16    79  576  576     0.00000   7.43858 1.03747e-003  1169  2032  -3.13   0.19  -0.30  -19.13   15.26   53.60  1.100 -0.550 0 2 0 2  0.417  0.417 330.91    0.00     0.00    0.00   1   90.00     0    0    0   110 2400.0  1   1    8    0   0.000    0.000    0.000  1
 64   1    1  1 0 0    63  16    79  576  576     0.00000   7.43858 1.03747e-003  1187  2063  -3.13   0.19  -0.30  -19.13   15.23   53.05  1.100 -0.550 0 2 0 2  0.417  0.417 330.91    0.00     0.00    0.00   1   90.00     0    0    0   110 2400.0  1   1    8    0   0.000    0.000    0.000  1
 65   1    1  1 0 0    64  16    79  576  576     0.00000   7.43858 1.03747e-003  1221  2122  -3.13   0.19  -0.30  -19.14   15.20   52.50  1.100 -0.550 0 2 0 2  0.417  0.417 330.91    0.00     0.00    0.00   1   90.00     0    0    0   110 2400.0  1   1    8    0   0.000    0.000    0.000  1
 66   1    1  1 0 0    65  16    79  576  576     0.00000   7.43858 1.03747e-003  1241  2157  -3.13   0.19  -0.30  -19.14   15.17   51.96  1.100 -0.550 0 2 0 2  0.417  0.417 330.91    0.00     0.00    0.00   1   90.00     0    0    0   110 2400.0  1   1    8    0   0.000    0.000    0.000  1
 67   1    1  1 0 0    66  16    79  576  576     0.00000   7.43858 1.03747e-003  1238  2153  -3.13   0.19  -0.30  -19.14   15.14   51.41  1.100 -0.550 0 2 0 2  0.417  0.417 330.91    0.00     0.00    0.00   1   90.00     0    0    0   110 2400.0  1   1    8    0   0.000    0.000    0.000  1
 68   1    1  1 0 0    67  16    79  576  576     0.00000   7.43858 1.03747e-003  1245  2165  -3.13   0.19  -0.30  -19.14   15.11   50.86  1.100 -0.550 0 2 0 2  0.417  0.417 330.91    0.00     0.00    0.00   1   90.00     0    0    0   110 2400.0  1   1    8    0   0.000    0.000    0.000  1
 69   1    1  1 0 0    68  16    79  576  576     0.00000   7.43858 1.03747e-003  1244  2162  -3.13   0.19  -0.30  -19.14   15.08   50.31  1.100 -0.550 0 2 0 2  0.417  0.417 330.91    0.00     0.00    0.00   1   90.00     0    0    0   110 2400.0  1   1    8    0   0.000    0.000    0.000  1
 70   1    1  1 0 0    69  16    79  576  576     0.00000   7.43858 1.03747e-003  1236  2149  -3.13   0.19  -0.30  -19.15   15.05   49.76  1.100 -0.550 0 2 0 2  0.417  0.417 330.91    0.00     0.00    0.00   1   90.00     0    0    0   110 2400.0  1   1    8    0   0.000    0.000    0.000  1
 71   1    1  1 0 0    70  16    79  576  576     0.00000   7.43858 1.03747e-003  1255  2181  -3.13   0.19  -0.30  -19.15   15.02   49.21  1.100 -0.550 0 2 0 2  0.417  0.417 330.91    0.00     0.00    0.00   1   90.00     0    0    0   110 2400.0  1   1    8    0   0.000    0.000    0.000  1
 72   1    1  1 0 0    71  16    79  576  576     0.00000   7.43858 1.03747e-003  1271  2210  -3.13   0.19  -0.30  -19.15   14.99   48.66  1.100 -0.550 0 2 0 2  0.417  0.417 330.91    0.00     0.00    0.00   1   90.00     0    0    0   110 2400.0  1   1    8    0   0.000    0.000    0.000  1
 73   1    1  1 0 0    72  16    79  576  576     0.00000   7.43858 1.03747e-003  1271  2209  -3.13   0.19  -0.30  -19.15   14.96   48.11  1.100 -0.550 0 2 0 2  0.417  0.417 330.91    0.00     0.00    0.00   1   90.00     0    0    0   110 2400.0  1   1    8    0   0.000    0.000    0.000  1
 74   1    1  1 0 0    73  16    79  576  576     0.00000   7.43858 1.03747e-003  1281  2227  -3.13   0.19  -0.30  -19.15   14.93   47.56  1.100 -0.550 0 2 0 2  0.417  0.417 330.91    0.00     0.00    0.00   1   90.00     0    0    0   110 2400.0  1   1    8    0   0.000    0.000    0.000  1
 75   1    1  1 0 0    74  16    79  576  576     0.00000   7.43858 1.03747e-003  1296  2253  -3.13   0.19  -0.30  -19.16   14.90   47.01  1.100 -0.550 0 2 0 2  0.417  0.417 330.91    0.00     0.00    0.00   1   90.00     0    0    0   110 2400.0  1   1    8    0   0.000    0.000    0.000  1
 76   1    1  1 0 0    75  16    79  576  576     0.00000   7.43858 1.03747e-003  1322  2297  -3.13   0.19  -0.30  -19.16   14.87   46.46  1.100 -0.550 0 2 0 2  0.417  0.417 330.91    0.00     0.00    0.00   1   90.00     0    0    0   110 2400.0  1   1    8    0   0.000    0.000    0.000  1
 77   1    1  1 0 0    76  16    79  576  576     0.00000   7.43858 1.03747e-003  1350  2347  -3.13   0.19  -0.30  -19.16   14.84   45.91  1.100 -0.550 0 2 0 2  0.417  0.417 330.91    0.00     0.00    0.00   1   90.00     0    0    0   110 2400.0  1   1    8    0   0.000    0.000    0.000  1
 78   1    1  1 0 0    77  16    79  576  576     0.00000   7.43858 1.03747e-003  1395  2424  -3.13   0.19  -0.30  -19.16   14.81   45.37  1.100 -0.550 0 2 0 2  0.417  0.417 330.91    0.00     0.00    0.00   1   90.00     0    0    0   110 2400.0  1   1    8    0   0.000    0.000    0.000  1
 79   1    1  1 0 0    78  16    79  576  576     0.00000   7.43858 1.03747e-003  1407  2445  -3.13   0.19  -0.30  -19.16   14.78   44.82  1.100 -0.550 0 2 0 2  0.417  0.417 330.91    0.00     0.00    0.00   1   90.00     0    0    0   110 2400.0  1   1    8    0   0.000    0.000    0.000  1
 80   1    1  1 0 0    79  16    79  576  576     0.00000   7.43858 1.03747e-003  1410  2451  -3.13   0.19  -0.30  -19.17   14.75   44.27  1.100 -0.550 0 2 0 2  0.417  0.417 330.91    0.00     0.00    0.00   1   90.00     0    0    0   110 2400.0  1   1    8    0   0.000    0.000    0.000  1
 81   1    1  1 0 0    80  16    79  576  576     0.00000   7.43858 1.03747e-003  1412  2454  -3.13   0.19  -0.30  -19.17   14.72   43.72  1.100 -0.550 0 2 0 2  0.417  0.417 330.91    0.00     0.00    0.00   1   90.00     0    0    0   110 2400.0  1   1    8    0   0.000    0.000    0.000  1
 82   1    1  1 0 0    81  16    79  576  576     0.00000   7.43858 1.03747e-003  1438  2500  -3.13   0.19  -0.30  -19.17   14.69   43.17  1.100 -0.550 0 2 0 2  0.417  0.417 330.91    0.00     0.00    0.00   1   90.00     0    0    0   110 2400.0  1   1    8    0   0.000    0.000    0.000  1
 83   1    1  1 0 0    82  16    79  576  576     0.00000   7.43858 1.03747e-003  1452  2524  -3.13   0.19  -0.30  -19.17   14.66   42.62  1.100 -0.550 0 2 0 2  0.417  0.417 330.91    0.00     0.00    0.00   1   90.00     0    0    0   110 2400.0  1   1    8    0   0.000    0.000    0.000  1
 84   1    1  1 0 0    83  16    79  576  576     0.00000   7.43858 1.03747e-003  1487  2585  -3.13   0.19  -0.30  -19.17   14.63   42.07  1.100 -0.550 0 2 0 2  0.417  0.417 330.91    0.00     0.00    0.00   1   90.00     0    0    0   110 2400.0  1   1    8    0   0.000    0.000    0.000  1
