# === DATA DESCRIPTION FILE ======================================================
#
# CAUTION - Investigational device.
# Limited by Federal Law to investigational use.
#
#
# CLINICAL TRYOUT             Research image export tool     V4.2
#
# === GENERAL INFORMATION ========================================================
#
.    Protocol name                      :   WIP 3D FLAIR Sag UMich SENSE
.    Series Type                        :   Image   MRSERIES
.    Acquisition nr                     :   4
.    Reconstruction nr                  :   1
.    Scan Duration [sec]                :   528
.    Max. number of cardiac phases      :   1
.    Max. number of echoes              :   1
.    Max. number of slices/locations    :   327
.    Max. number of dynamics            :   1
.    Max. number of mixes               :   1
.    Patient position                   :   Head First Supine
.    Preparation direction              :   Anterior-Posterior
.    Technique                          :   TIR
.    Scan resolution  (x, y)            :   216  220
.    Scan mode                          :   3D
.    Repetition time [ms]               :   8000.000  
.    FOV (ap,fh,rl) [mm]                :   240.000  200.000  179.850
.    Water Fat shift [pixels]           :   0.858
.    Angulation midslice(ap,fh,rl)[degr]:   2.346  7.153  0.328
.    Off Centre midslice(ap,fh,rl) [mm] :   -7.265  16.920  0.989
.    Flow compensation <0=no 1=yes> ?   :   1
.    Presaturation     <0=no 1=yes> ?   :   0
.    Phase encoding velocity [cm/sec]   :   0.000000  0.000000  0.000000
.    MTC               <0=no 1=yes> ?   :   0
.    SPIR              <0=no 1=yes> ?   :   1
.    EPI factor        <0,1=no EPI>     :   1
.    Dynamic scan      <0=no 1=yes> ?   :   0
.    Diffusion         <0=no 1=yes> ?   :   0
.    Diffusion echo time [ms]           :   0.0000
.    Max. number of diffusion values    :   1
.    Max. number of gradient orients    :   1
.    Number of label types   <0=no ASL> :   0
#
# === PIXEL VALUES =============================================================
#  PV = pixel value in REC file, FP = floating point value, DV = displayed value on console
#  RS = rescale slope,           RI = rescale intercept,    SS = scale slope
#  DV = PV * RS + RI             FP = DV / (RS * SS)
#
# === IMAGE INFORMATION DEFINITION =============================================
#  The rest of this file contains ONE line per image, this line contains the following information:
#
#  slice number                             (integer)
#  echo number                              (integer)
#  dynamic scan number                      (integer)
#  cardiac phase number                     (integer)
#  image_type_mr                            (integer)
#  scanning sequence                        (integer)
#  index in REC file (in images)            (integer)
#  image pixel size (in bits)               (integer)
#  scan percentage                          (integer)
#  recon resolution (x y)                   (2*integer)
#  rescale intercept                        (float)
#  rescale slope                            (float)
#  scale slope                              (float)
#  window center                            (integer)
#  window width                             (integer)
#  image angulation (ap,fh,rl in degrees )  (3*float)
#  image offcentre (ap,fh,rl in mm )        (3*float)
#  slice thickness (in mm )                 (float)
#  slice gap (in mm )                       (float)
#  image_display_orientation                (integer)
#  slice orientation ( TRA/SAG/COR )        (integer)
#  fmri_status_indication                   (integer)
#  image_type_ed_es  (end diast/end syst)   (integer)
#  pixel spacing (x,y) (in mm)              (2*float)
#  echo_time                                (float)
#  dyn_scan_begin_time                      (float)
#  trigger_time                             (float)
#  diffusion_b_factor                       (float)
#  number of averages                       (integer)
#  image_flip_angle (in degrees)            (float)
#  cardiac frequency   (bpm)                (integer)
#  minimum RR-interval (in ms)              (integer)
#  maximum RR-interval (in ms)              (integer)
#  TURBO factor  <0=no turbo>               (integer)
#  Inversion delay (in ms)                  (float)
#  diffusion b value number    (imagekey!)  (integer)
#  gradient orientation number (imagekey!)  (integer)
#  contrast type                            (string)
#  diffusion anisotropy type                (string)
#  diffusion (ap, fh, rl)                   (3*float)
#  label type (ASL)            (imagekey!)  (integer)
#
# === IMAGE INFORMATION ==========================================================
#  sl ec  dyn ph ty    idx pix scan% rec size                (re)scale              window        angulation              offcentre        thick   gap   info      spacing     echo     dtime   ttime    diff  avg  flip    freq   RR-int  turbo delay b grad cont anis         diffusion       L.ty

  1   1    1  1 0 0     0  16    79  576  576     0.00000   5.69939 1.31149e-003     5     8   2.35   7.15   0.33    3.92   13.34   89.87  1.100 -0.550 0 2 0 2  0.417  0.417 331.69    0.00     0.00    0.00   1   90.00     0    0    0   110 2400.0  1   1    8    0   0.000    0.000    0.000  1
  2   1    1  1 0 0     1  16    79  576  576     0.00000   5.69939 1.31149e-003    12    20   2.35   7.15   0.33    3.85   13.36   89.32  1.100 -0.550 0 2 0 2  0.417  0.417 331.69    0.00     0.00    0.00   1   90.00     0    0    0   110 2400.0  1   1    8    0   0.000    0.000    0.000  1
  3   1    1  1 0 0     2  16    79  576  576     0.00000   5.69939 1.31149e-003    13    23   2.35   7.15   0.33    3.78   13.39   88.78  1.100 -0.550 0 2 0 2  0.417  0.417 331.69    0.00     0.00    0.00   1   90.00     0    0    0   110 2400.0  1   1    8    0   0.000    0.000    0.000  1
  4   1    1  1 0 0     3  16    79  576  576     0.00000   5.69939 1.31149e-003    15    26   2.35   7.15   0.33    3.71   13.41   88.23  1.100 -0.550 0 2 0 2  0.417  0.417 331.69    0.00     0.00    0.00   1   90.00     0    0    0   110 2400.0  1   1    8    0   0.000    0.000    0.000  1
  5   1    1  1 0 0     4  16    79  576  576     0.00000   5.69939 1.31149e-003    16    28   2.35   7.15   0.33    3.64   13.43   87.69  1.100 -0.550 0 2 0 2  0.417  0.417 331.69    0.00     0.00    0.00   1   90.00     0    0    0   110 2400.0  1   1    8    0   0.000    0.000    0.000  1
  6   1    1  1 0 0     5  16    79  576  576     0.00000   5.69939 1.31149e-003    17    29   2.35   7.15   0.33    3.58   13.45   87.14  1.100 -0.550 0 2 0 2  0.417  0.417 331.69    0.00     0.00    0.00   1   90.00     0    0    0   110 2400.0  1   1    8    0   0.000    0.000    0.000  1
  7   1    1  1 0 0     6  16    79  576  576     0.00000   5.69939 1.31149e-003    19    32   2.35   7.15   0.33    3.51   13.47   86.60  1.100 -0.550 0 2 0 2  0.417  0.417 331.69    0.00     0.00    0.00   1   90.00     0    0    0   110 2400.0  1   1    8    0   0.000    0.000    0.000  1
  8   1    1  1 0 0     7  16    79  576  576     0.00000   5.69939 1.31149e-003    20    34   2.35   7.15   0.33    3.44   13.50   86.05  1.100 -0.550 0 2 0 2  0.417  0.417 331.69    0.00     0.00    0.00   1   90.00     0    0    0   110 2400.0  1   1    8    0   0.000    0.000    0.000  1
  9   1    1  1 0 0     8  16    79  576  576     0.00000   5.69939 1.31149e-003    22    38   2.35   7.15   0.33    3.37   13.52   85.51  1.100 -0.550 0 2 0 2  0.417  0.417 331.69    0.00     0.00    0.00   1   90.00     0    0    0   110 2400.0  1   1    8    0   0.000    0.000    0.000  1
 10   1    1  1 0 0     9  16    79  576  576     0.00000   5.69939 1.31149e-003    25    44   2.35   7.15   0.33    3.30   13.54   84.96  1.100 -0.550 0 2 0 2  0.417  0.417 331.69    0.00     0.00    0.00   1   90.00     0    0    0   110 2400.0  1   1    8    0   0.000    0.000    0.000  1
 11   1    1  1 0 0    10  16    79  576  576     0.00000   5.69939 1.31149e-003    28    49   2.35   7.15   0.33    3.23   13.56   84.41  1.100 -0.550 0 2 0 2  0.417  0.417 331.69    0.00     0.00    0.00   1   90.00     0    0    0   110 2400.0  1   1    8    0   0.000    0.000    0.000  1
 12   1    1  1 0 0    11  16    79  576  576     0.00000   5.69939 1.31149e-003    29    51   2.35   7.15   0.33    3.16   13.58   83.87  1.100 -0.550 0 2 0 2  0.417  0.417 331.69    0.00     0.00    0.00   1   90.00     0    0    0   110 2400.0  1   1    8    0   0.000    0.000    0.000  1
 13   1    1  1 0 0    12  16    79  576  576     0.00000   5.69939 1.31149e-003    31    54   2.35   7.15   0.33    3.09   13.61   83.32  1.100 -0.550 0 2 0 2  0.417  0.417 331.69    0.00     0.00    0.00   1   90.00     0    0    0   110 2400.0  1   1    8    0   0.000    0.000    0.000  1
 14   1    1  1 0 0    13  16    79  576  576     0.00000   5.69939 1.31149e-003    31    55   2.35   7.15   0.33    3.03   13.63   82.78  1.100 -0.550 0 2 0 2  0.417  0.417 331.69    0.00     0.00    0.00   1   90.00     0    0    0   110 2400.0  1   1    8    0   0.000    0.000    0.000  1
 15   1    1  1 0 0    14  16    79  576  576     0.00000   5.69939 1.31149e-003    38    66   2.35   7.15   0.33    2.96   13.65   82.23  1.100 -0.550 0 2 0 2  0.417  0.417 331.69    0.00     0.00    0.00   1   90.00     0    0    0   110 2400.0  1   1    8    0   0.000    0.000    0.000  1
 16   1    1  1 0 0    15  16    79  576  576     0.00000   5.69939 1.31149e-003    45    78   2.35   7.15   0.33    2.89   13.67   81.69  1.100 -0.550 0 2 0 2  0.417  0.417 331.69    0.00     0.00    0.00   1   90.00     0    0    0   110 2400.0  1   1    8    0   0.000    0.000    0.000  1
 17   1    1  1 0 0    16  16    79  576  576     0.00000   5.69939 1.31149e-003    59   103   2.35   7.15   0.33    2.82   13.69   81.14  1.100 -0.550 0 2 0 2  0.417  0.417 331.69    0.00     0.00    0.00   1   90.00     0    0    0   110 2400.0  1   1    8    0   0.000    0.000    0.000  1
 18   1    1  1 0 0    17  16    79  576  576     0.00000   5.69939 1.31149e-003   149   259   2.35   7.15   0.33    2.75   13.72   80.60  1.100 -0.550 0 2 0 2  0.417  0.417 331.69    0.00     0.00    0.00   1   90.00     0    0    0   110 2400.0  1   1    8    0   0.000    0.000    0.000  1
 19   1    1  1 0 0    18  16    79  576  576     0.00000   5.69939 1.31149e-003   266   462   2.35   7.15   0.33    2.68   13.74   80.05  1.100 -0.550 0 2 0 2  0.417  0.417 331.69    0.00     0.00    0.00   1   90.00     0    0    0   110 2400.0  1   1    8    0   0.000    0.000    0.000  1
 20   1    1  1 0 0    19  16    79  576  576     0.00000   5.69939 1.31149e-003   286   497   2.35   7.15   0.33    2.61   13.76   79.51  1.100 -0.550 0 2 0 2  0.417  0.417 331.69    0.00     0.00    0.00   1   90.00     0    0    0   110 2400.0  1   1    8    0   0.000    0.000    0.000  1
 21   1    1  1 0 0    20  16    79  576  576     0.00000   5.69939 1.31149e-003   247   430   2.35   7.15   0.33    2.55   13.78   78.96  1.100 -0.550 0 2 0 2  0.417  0.417 331.69    0.00     0.00    0.00   1   90.00     0    0    0   110 2400.0  1   1    8    0   0.000    0.000    0.000  1
 22   1    1  1 0 0    21  16    79  576  576     0.00000   5.69939 1.31149e-003   266   463   2.35   7.15   0.33    2.48   13.80   78.42  1.100 -0.550 0 2 0 2  0.417  0.417 331.69    0.00     0.00    0.00   1   90.00     0    0    0   110 2400.0  1   1    8    0   0.000    0.000    0.000  1
 23   1    1  1 0 0    22  16    79  576  576     0.00000   5.69939 1.31149e-003   300   522   2.35   7.15   0.33    2.41   13.83   77.87  1.100 -0.550 0 2 0 2  0.417  0.417 331.69    0.00     0.00    0.00   1   90.00     0    0    0   110 2400.0  1   1    8    0   0.000    0.000    0.000  1
 24   1    1  1 0 0    23  16    79  576  576     0.00000   5.69939 1.31149e-003   322   560   2.35   7.15   0.33    2.34   13.85   77.33  1.100 -0.550 0 2 0 2  0.417  0.417 331.69    0.00     0.00    0.00   1   90.00     0    0    0   110 2400.0  1   1    8    0   0.000    0.000    0.000  1
 25   1    1  1 0 0    24  16    79  576  576     0.00000   5.69939 1.31149e-003   318   552   2.35   7.15   0.33    2.27   13.87   76.78  1.100 -0.550 0 2 0 2  0.417  0.417 331.69    0.00     0.00    0.00   1   90.00     0    0    0   110 2400.0  1   1    8    0   0.000    0.000    0.000  1
 26   1    1  1 0 0    25  16    79  576  576     0.00000   5.69939 1.31149e-003   317   552   2.35   7.15   0.33    2.20   13.89   76.24  1.100 -0.550 0 2 0 2  0.417  0.417 331.69    0.00     0.00    0.00   1   90.00     0    0    0   110 2400.0  1   1    8    0   0.000    0.000    0.000  1
 27   1    1  1 0 0    26  16    79  576  576     0.00000   5.69939 1.31149e-003   319   554   2.35   7.15   0.33    2.13   13.91   75.69  1.100 -0.550 0 2 0 2  0.417  0.417 331.69    0.00     0.00    0.00   1   90.00     0    0    0   110 2400.0  1   1    8    0   0.000    0.000    0.000  1
 28   1    1  1 0 0    27  16    79  576  576     0.00000   5.69939 1.31149e-003   324   564   2.35   7.15   0.33    2.07   13.94   75.15  1.100 -0.550 0 2 0 2  0.417  0.417 331.69    0.00     0.00    0.00   1   90.00     0    0    0   110 2400.0  1   1    8    0   0.000    0.000    0.000  1
 29   1    1  1 0 0    28  16    79  576  576     0.00000   5.69939 1.31149e-003   370   644   2.35   7.15   0.33    2.00   13.96   74.60  1.100 -0.550 0 2 0 2  0.417  0.417 331.69    0.00     0.00    0.00   1   90.00     0    0    0   110 2400.0  1   1    8    0   0.000    0.000    0.000  1
 30   1    1  1 0 0    29  16    79  576  576     0.00000   5.69939 1.31149e-003   506   879   2.35   7.15   0.33    1.93   13.98   74.05  1.100 -0.550 0 2 0 2  0.417  0.417 331.69    0.00     0.00    0.00   1   90.00     0    0    0   110 2400.0  1   1    8    0   0.000    0.000    0.000  1
 31   1    1  1 0 0    30  16    79  576  576     0.00000   5.69939 1.31149e-003   629  1093   2.35   7.15   0.33    1.86   14.00   73.51  1.100 -0.550 0 2 0 2  0.417  0.417 331.69    0.00     0.00    0.00   1   90.00     0    0    0   110 2400.0  1   1    8    0   0.000    0.000    0.000  1
 32   1    1  1 0 0    31  16    79  576  576     0.00000   5.69939 1.31149e-003   679  1181   2.35   7.15   0.33    1.79   14.02   72.96  1.100 -0.550 0 2 0 2  0.417  0.417 331.69    0.00     0.00    0.00   1   90.00     0    0    0   110 2400.0  1   1    8    0   0.000    0.000    0.000  1
 33   1    1  1 0 0    32  16    79  576  576     0.00000   5.69939 1.31149e-003   648  1126   2.35   7.15   0.33    1.72   14.05   72.42  1.100 -0.550 0 2 0 2  0.417  0.417 331.69    0.00     0.00    0.00   1   90.00     0    0    0   110 2400.0  1   1    8    0   0.000    0.000    0.000  1
 34   1    1  1 0 0    33  16    79  576  576     0.00000   5.69939 1.31149e-003   632  1098   2.35   7.15   0.33    1.65   14.07   71.87  1.100 -0.550 0 2 0 2  0.417  0.417 331.69    0.00     0.00    0.00   1   90.00     0    0    0   110 2400.0  1   1    8    0   0.000    0.000    0.000  1
 35   1    1  1 0 0    34  16    79  576  576     0.00000   5.69939 1.31149e-003   614  1067   2.35   7.15   0.33    1.59   14.09   71.33  1.100 -0.550 0 2 0 2  0.417  0.417 331.69    0.00     0.00    0.00   1   90.00     0    0    0   110 2400.0  1   1    8    0   0.000    0.000    0.000  1
 36   1    1  1 0 0    35  16    79  576  576     0.00000   5.69939 1.31149e-003   595  1034   2.35   7.15   0.33    1.52   14.11   70.78  1.100 -0.550 0 2 0 2  0.417  0.417 331.69    0.00     0.00    0.00   1   90.00     0    0    0   110 2400.0  1   1    8    0   0.000    0.000    0.000  1
 37   1    1  1 0 0    36  16    79  576  576     0.00000   5.69939 1.31149e-003   565   982   2.35   7.15   0.33    1.45   14.13   70.24  1.100 -0.550 0 2 0 2  0.417  0.417 331.69    0.00     0.00    0.00   1   90.00     0    0    0   110 2400.0  1   1    8    0   0.000    0.000    0.000  1
 38   1    1  1 0 0    37  16    79  576  576     0.00000   5.69939 1.31149e-003   529   920   2.35   7.15   0.33    1.38   14.16   69.69  1.100 -0.550 0 2 0 2  0.417  0.417 331.69    0.00     0.00    0.00   1   90.00     0    0    0   110 2400.0  1   1    8    0   0.000    0.000    0.000  1
 39   1    1  1 0 0    38  16    79  576  576     0.00000   5.69939 1.31149e-003   516   897   2.35   7.15   0.33    1.31   14.18   69.15  1.100 -0.550 0 2 0 2  0.417  0.417 331.69    0.00     0.00    0.00   1   90.00     0    0    0   110 2400.0  1   1    8    0   0.000    0.000    0.000  1
 40   1    1  1 0 0    39  16    79  576  576     0.00000   5.69939 1.31149e-003   566   983   2.35   7.15   0.33    1.24   14.20   68.60  1.100 -0.550 0 2 0 2  0.417  0.417 331.69    0.00     0.00    0.00   1   90.00     0    0    0   110 2400.0  1   1    8    0   0.000    0.000    0.000  1
 41   1    1  1 0 0    40  16    79  576  576     0.00000   5.69939 1.31149e-003   601  1045   2.35   7.15   0.33    1.17   14.22   68.06  1.100 -0.550 0 2 0 2  0.417  0.417 331.69    0.00     0.00    0.00   1   90.00     0    0    0   110 2400.0  1   1    8    0   0.000    0.000    0.000  1
 42   1    1  1 0 0    41  16    79  576  576     0.00000   5.69939 1.31149e-003   601  1044   2.35   7.15   0.33    1.11   14.24   67.51  1.100 -0.550 0 2 0 2  0.417  0.417 331.69    0.00     0.00    0.00   1   90.00     0    0    0   110 2400.0  1   1    8    0   0.000    0.000    0.000  1
 43   1    1  1 0 0    42  16    79  576  576     0.00000   5.69939 1.31149e-003   571   993   2.35   7.15   0.33    1.04   14.26   66.97  1.100 -0.550 0 2 0 2  0.417  0.417 331.69    0.00     0.00    0.00   1   90.00     0    0    0   110 2400.0  1   1    8    0   0.000    0.000    0.000  1
 44   1    1  1 0 0    43  16    79  576  576     0.00000   5.69939 1.31149e-003   580  1008   2.35   7.15   0.33    0.97   14.29   66.42  1.100 -0.550 0 2 0 2  0.417  0.417 331.69    0.00     0.00    0.00   1   90.00     0    0    0   110 2400.0  1   1    8    0   0.000    0.000    0.000  1
 45   1    1  1 0 0    44  16    79  576  576     0.00000   5.69939 1.31149e-003   645  1121   2.35   7.15   0.33    0.90   14.31   65.88  1.100 -0.550 0 2 0 2  0.417  0.417 331.69    0.00     0.00    0.00   1   90.00     0    0    0   110 2400.0  1   1    8    0   0.000    0.000    0.000  1
 46   1    1  1 0 0    45  16    79  576  576     0.00000   5.69939 1.31149e-003   752  1308   2.35   7.15   0.33    0.83   14.33   65.33  1.100 -0.550 0 2 0 2  0.417  0.417 331.69    0.00     0.00    0.00   1   90.00     0    0    0   110 2400.0  1   1    8    0   0.000    0.000    0.000  1
 47   1    1  1 0 0    46  16    79  576  576     0.00000   5.69939 1.31149e-003   833  1448   2.35   7.15   0.33    0.76   14.35   64.79  1.100 -0.550 0 2 0 2  0.417  0.417 331.69    0.00     0.00    0.00   1   90.00     0    0    0   110 2400.0  1   1    8    0   0.000    0.000    0.000  1
 48   1    1  1 0 0    47  16    79  576  576     0.00000   5.69939 1.31149e-003   855  1487   2.35   7.15   0.33    0.69   14.37   64.24  1.100 -0.550 0 2 0 2  0.417  0.417 331.69    0.00     0.00    0.00   1   90.00     0    0    0   110 2400.0  1   1    8    0   0.000    0.000    0.000  1
 49   1    1  1 0 0    48  16    79  576  576     0.00000   5.69939 1.31149e-003   898  1561   2.35   7.15   0.33    0.62   14.40   63.69  1.100 -0.550 0 2 0 2  0.417  0.417 331.69    0.00     0.00    0.00   1   90.00     0    0    0   110 2400.0  1   1    8    0   0.000    0.000    0.000  1
 50   1    1  1 0 0    49  16    79  576  576     0.00000   5.69939 1.31149e-003   924  1607   2.35   7.15   0.33    0.56   14.42   63.15  1.100 -0.550 0 2 0 2  0.417  0.417 331.69    0.00     0.00    0.00   1   90.00     0    0    0   110 2400.0  1   1    8    0   0.000    0.000    0.000  1
 51   1    1  1 0 0    50  16    79  576  576     0.00000   5.69939 1.31149e-003   938  1630   2.35   7.15   0.33    0.49   14.44   62.60  1.100 -0.550 0 2 0 2  0.417  0.417 331.69    0.00     0.00    0.00   1   90.00     0    0    0   110 2400.0  1   1    8    0   0.000    0.000    0.000  1
 52   1    1  1 0 0    51  16    79  576  576     0.00000   5.69939 1.31149e-003   961  1671   2.35   7.15   0.33    0.42   14.46   62.06  1.100 -0.550 0 2 0 2  0.417  0.417 331.69    0.00     0.00    0.00   1   90.00     0    0    0   110 2400.0  1   1    8    0   0.000    0.000    0.000  1
 53   1    1  1 0 0    52  16    79  576  576     0.00000   5.69939 1.31149e-003   978  1700   2.35   7.15   0.33    0.35   14.48   61.51  1.100 -0.550 0 2 0 2  0.417  0.417 331.69    0.00     0.00    0.00   1   90.00     0    0    0   110 2400.0  1   1    8    0   0.000    0.000    0.000  1
 54   1    1  1 0 0    53  16    79  576  576     0.00000   5.69939 1.31149e-003   991  1722   2.35   7.15   0.33    0.28   14.51   60.97  1.100 -0.550 0 2 0 2  0.417  0.417 331.69    0.00     0.00    0.00   1   90.00     0    0    0   110 2400.0  1   1    8    0   0.000    0.000    0.000  1
 55   1    1  1 0 0    54  16    79  576  576     0.00000   5.69939 1.31149e-003  1008  1753   2.35   7.15   0.33    0.21   14.53   60.42  1.100 -0.550 0 2 0 2  0.417  0.417 331.69    0.00     0.00    0.00   1   90.00     0    0    0   110 2400.0  1   1    8    0   0.000    0.000    0.000  1
 56   1    1  1 0 0    55  16    79  576  576     0.00000   5.69939 1.31149e-003  1024  1781   2.35   7.15   0.33    0.14   14.55   59.88  1.100 -0.550 0 2 0 2  0.417  0.417 331.69    0.00     0.00    0.00   1   90.00     0    0    0   110 2400.0  1   1    8    0   0.000    0.000    0.000  1
 57   1    1  1 0 0    56  16    79  576  576     0.00000   5.69939 1.31149e-003  1033  1796   2.35   7.15   0.33    0.08   14.57   59.33  1.100 -0.550 0 2 0 2  0.417  0.417 331.69    0.00     0.00    0.00   1   90.00     0    0    0   110 2400.0  1   1    8    0   0.000    0.000    0.000  1
 58   1    1  1 0 0    57  16    79  576  576     0.00000   5.69939 1.31149e-003  1048  1822   2.35   7.15   0.33    0.01   14.59   58.79  1.100 -0.550 0 2 0 2  0.417  0.417 331.69    0.00     0.00    0.00   1   90.00     0    0    0   110 2400.0  1   1    8    0   0.000    0.000    0.000  1
 59   1    1  1 0 0    58  16    79  576  576     0.00000   5.69939 1.31149e-003  1066  1854   2.35   7.15   0.33   -0.06   14.62   58.24  1.100 -0.550 0 2 0 2  0.417  0.417 331.69    0.00     0.00    0.00   1   90.00     0    0    0   110 2400.0  1   1    8    0   0.000    0.000    0.000  1
 60   1    1  1 0 0    59  16    79  576  576     0.00000   5.69939 1.31149e-003  1081  1880   2.35   7.15   0.33   -0.13   14.64   57.70  1.100 -0.550 0 2 0 2  0.417  0.417 331.69    0.00     0.00    0.00   1   90.00     0    0    0   110 2400.0  1   1    8    0   0.000    0.000    0.000  1
 61   1    1  1 0 0    60  16    79  576  576     0.00000   5.69939 1.31149e-003  1099  1910   2.35   7.15   0.33   -0.20   14.66   57.15  1.100 -0.550 0 2 0 2  0.417  0.417 331.69    0.00     0.00    0.00   1   90.00     0    0    0   110 2400.0  1   1    8    0   0.000    0.000    0.000  1
 62   1    1  1 0 0    61  16    79  576  576     0.00000   5.69939 1.31149e-003  1110  1929   2.35   7.15   0.33   -0.27   14.68   56.61  1.100 -0.550 0 2 0 2  0.417  0.417 331.69    0.00     0.00    0.00   1   90.00     0    0    0   110 2400.0  1   1    8    0   0.000    0.000    0.000  1
 63   1    1  1 0 0    62  16    79  576  576     0.00000   5.69939 1.31149e-003  1115  1937   2.35   7.15   0.33   -0.34   14.70   56.06  1.100 -0.550 0 2 0 2  0.417  0.417 331.69    0.00     0.00    0.00   1   90.00     0    0    0   110 2400.0  1   1    8    0   0.000    0.000    0.000  1
 64   1    1  1 0 0    63  16    79  576  576     0.00000   5.69939 1.31149e-003  1118  1943   2.35   7.15   0.33   -0.40   14.73   55.52  1.100 -0.550 0 2 0 2  0.417  0.417 331.69    0.00     0.00    0.00   1   90.00     0    0    0   110 2400.0  1   1    8    0   0.000    0.000    0.000  1
 65   1    1  1 0 0    64  16    79  576  576     0.00000   5.69939 1.31149e-003  1123  1952   2.35   7.15   0.33   -0.47   14.75   54.97  1.100 -0.550 0 2 0 2  0.417  0.417 331.69    0.00     0.00    0.00   1   90.00     0    0    0   110 2400.0  1   1    8    0   0.000    0.000    0.000  1
 66   1    1  1 0 0    65  16    79  576  576     0.00000   5.69939 1.31149e-003  1140  1981   2.35   7.15   0.33   -0.54   14.77   54.43  1.100 -0.550 0 2 0 2  0.417  0.417 331.69    0.00     0.00    0.00   1   90.00     0    0    0   110 2400.0  1   1    8    0   0.000    0.000    0.000  1
 67   1    1  1 0 0    66  16    79  576  576     0.00000   5.69939 1.31149e-003  1166  2027   2.35   7.15   0.33   -0.61   14.79   53.88  1.100 -0.550 0 2 0 2  0.417  0.417 331.69    0.00     0.00    0.00   1   90.00     0    0    0   110 2400.0  1   1    8    0   0.000    0.000    0.000  1
 68   1    1  1 0 0    67  16    79  576  576     0.00000   5.69939 1.31149e-003  1176  2044   2.35   7.15   0.33   -0.68   14.81   53.33  1.100 -0.550 0 2 0 2  0.417  0.417 331.69    0.00     0.00    0.00   1   90.00     0    0    0   110 2400.0  1   1    8    0   0.000    0.000    0.000  1
 69   1    1  1 0 0    68  16    79  576  576     0.00000   5.69939 1.31149e-003  1194  2076   2.35   7.15   0.33   -0.75   14.84   52.79  1.100 -0.550 0 2 0 2  0.417  0.417 331.69    0.00     0.00    0.00   1   90.00     0    0    0   110 2400.0  1   1    8    0   0.000    0.000    0.000  1
 70   1    1  1 0 0    69  16    79  576  576     0.00000   5.69939 1.31149e-003  1208  2101   2.35   7.15   0.33   -0.82   14.86   52.24  1.100 -0.550 0 2 0 2  0.417  0.417 331.69    0.00     0.00    0.00   1   90.00     0    0    0   110 2400.0  1   1    8    0   0.000    0.000    0.000  1
 71   1    1  1 0 0    70  16    79  576  576     0.00000   5.69939 1.31149e-003  1216  2115   2.35   7.15   0.33   -0.88   14.88   51.70  1.100 -0.550 0 2 0 2  0.417  0.417 331.69    0.00     0.00    0.00   1   90.00     0    0    0   110 2400.0  1   1    8    0   0.000    0.000    0.000  1
 72   1    1  1 0 0    71  16    79  576  576     0.00000   5.69939 1.31149e-003  1223  2126   2.35   7.15   0.33   -0.95   14.90   51.15  1.100 -0.550 0 2 0 2  0.417  0.417 331.69    0.00     0.00    0.00   1   90.00     0    0    0   110 2400.0  1   1    8    0   0.000    0.000    0.000  1
 73   1    1  1 0 0    72  16    79  576  576     0.00000   5.69939 1.31149e-003  1220  2121   2.35   7.15   0.33   -1.02   14.92   50.61  1.100 -0.550 0 2 0 2  0.417  0.417 331.69    0.00     0.00    0.00   1   90.00     0    0    0   110 2400.0  1   1    8    0   0.000    0.000    0.000  1
 74   1    1  1 0 0    73  16    79  576  576     0.00000   5.69939 1.31149e-003  1224  2127   2.35   7.15   0.33   -1.09   14.95   50.06  1.100 -0.550 0 2 0 2  0.417  0.417 331.69    0.00     0.00    0.00   1   90.00     0    0    0   110 2400.0  1   1    8    0   0.000    0.000    0.000  1
 75   1    1  1 0 0    74  16    79  576  576     0.00000   5.69939 1.31149e-003  1234  2145   2.35   7.15   0.33   -1.16   14.97   49.52  1.100 -0.550 0 2 0 2  0.417  0.417 331.69    0.00     0.00    0.00   1   90.00     0    0    0   110 2400.0  1   1    8    0   0.000    0.000    0.000  1
 76   1    1  1 0 0    75  16    79  576  576     0.00000   5.69939 1.31149e-003  1245  2164   2.35   7.15   0.33   -1.23   14.99   48.97  1.100 -0.550 0 2 0 2  0.417  0.417 331.69    0.00     0.00    0.00   1   90.00     0    0    0   110 2400.0  1   1    8    0   0.000    0.000    0.000  1
 77   1    1  1 0 0    76  16    79  576  576     0.00000   5.69939 1.31149e-003  1249  2170   2.35   7.15   0.33   -1.30   15.01   48.43  1.100 -0.550 0 2 0 2  0.417  0.417 331.69    0.00     0.00    0.00   1   90.00     0    0    0   110 2400.0  1   1    8    0   0.000    0.000    0.000  1
 78   1    1  1 0 0    77  16    79  576  576     0.00000   5.69939 1.31149e-003  1261  2193   2.35   7.15   0.33   -1.36   15.03   47.88  1.100 -0.550 0 2 0 2  0.417  0.417 331.69    0.00     0.00    0.00   1   90.00     0    0    0   110 2400.0  1   1    8    0   0.000    0.000    0.000  1
 79   1    1  1 0 0    78  16    79  576  576     0.00000   5.69939 1.31149e-003  1264  2198   2.35   7.15   0.33   -1.43   15.05   47.34  1.100 -0.550 0 2 0 2  0.417  0.417 331.69    0.00     0.00    0.00   1   90.00     0    0    0   110 2400.0  1   1    8    0   0.000    0.000    0.000  1
 80   1    1  1 0 0    79  16    79  576  576     0.00000   5.69939 1.31149e-003  1272  2211   2.35   7.15   0.33   -1.50   15.08   46.79  1.100 -0.550 0 2 0 2  0.417  0.417 331.69    0.00     0.00    0.00   1   90.00     0    0    0   110 2400.0  1   1    8    0   0.000    0.000    0.000  1
 81   1    1  1 0 0    80  16    79  576  576     0.00000   5.69939 1.31149e-003  1268  2204   2.35   7.15   0.33   -1.57   15.10   46.25  1.100 -0.550 0 2 0 2  0.417  0.417 331.69    0.00     0.00    0.00   1   90.00     0    0    0   110 2400.0  1   1    8    0   0.000    0.000    0.000  1
 82   1    1  1 0 0    81  16    79  576  576     0.00000   5.69939 1.31149e-003  1263  2195   2.35   7.15   0.33   -1.64   15.12   45.70  1.100 -0.550 0 2 0 2  0.417  0.417 331.69    0.00     0.00    0.00   1   90.00     0    0    0   110 2400.0  1   1    8    0   0.000    0.000    0.000  1
 83   1    1  1 0 0    82  16    79  576  576     0.00000   5.69939 1.31149e-003  1274  2215   2.35   7.15   0.33   -1.71   15.14   45.16  1.100 -0.550 0 2 0 2  0.417  0.417 331.69    0.00     0.00    0.00   1   90.00     0    0    0   110 2400.0  1   1    8    0   0.000    0.000    0.000  1
 84   1    1  1 0 0    83  16    79  576  576     0.00000   5.69939 1.31149e-003  1283  2230   2.35   7.15   0.33   -1.78   15.16   44.61  1.100 -0.550 0 2 0 2  0.417  0.417 331.69    0.00     0.00    0.00   1   90.00     0    0    0   110 2400.0  1   1    8    0   0.000    0.000    0.000  1
