# === DATA DESCRIPTION FILE ======================================================
#
# CAUTION - Investigational device.
# Limited by Federal Law to investigational use.
#
#
# CLINICAL TRYOUT             Research image export tool     V4.2
#
# === GENERAL INFORMATION ========================================================
#
.    Protocol name                      :   WIP MPrageADNIsag SENSE
.    Series Type                        :   Image   MRSERIES
.    Acquisition nr                     :   5
.    Reconstruction nr                  :   1
.    Scan Duration [sec]                :   356
.    Max. number of cardiac phases      :   1
.    Max. number of echoes              :   1
.    Max. number of slices/locations    :   170
.    Max. number of dynamics            :   1
.    Max. number of mixes               :   1
.    Patient position                   :   Head First Supine
.    Preparation direction              :   Anterior-Posterior
.    Technique                          :   T1TFE
.    Scan resolution  (x, y)            :   256  256
.    Scan mode                          :   3D
.    Repetition time [ms]               :   6.775  
.    FOV (ap,fh,rl) [mm]                :   240.000  256.000  204.000
.    Water Fat shift [pixels]           :   1.802
.    Angulation midslice(ap,fh,rl)[degr]:   -0.356  -0.806  -0.030
.    Off Centre midslice(ap,fh,rl) [mm] :   -12.134  -0.854  -0.550
.    Flow compensation <0=no 1=yes> ?   :   0
.    Presaturation     <0=no 1=yes> ?   :   0
.    Phase encoding velocity [cm/sec]   :   0.000000  0.000000  0.000000
.    MTC               <0=no 1=yes> ?   :   0
.    SPIR              <0=no 1=yes> ?   :   0
.    EPI factor        <0,1=no EPI>     :   1
.    Dynamic scan      <0=no 1=yes> ?   :   0
.    Diffusion         <0=no 1=yes> ?   :   0
.    Diffusion echo time [ms]           :   0.0000
.    Max. number of diffusion values    :   1
.    Max. number of gradient orients    :   1
.    Number of label types   <0=no ASL> :   0
#
# === PIXEL VALUES =============================================================
#  PV = pixel value in REC file, FP = floating point value, DV = displayed value on console
#  RS = rescale slope,           RI = rescale intercept,    SS = scale slope
#  DV = PV * RS + RI             FP = DV / (RS * SS)
#
# === IMAGE INFORMATION DEFINITION =============================================
#  The rest of this file contains ONE line per image, this line contains the following information:
#
#  slice number                             (integer)
#  echo number                              (integer)
#  dynamic scan number                      (integer)
#  cardiac phase number                     (integer)
#  image_type_mr                            (integer)
#  scanning sequence                        (integer)
#  index in REC file (in images)            (integer)
#  image pixel size (in bits)               (integer)
#  scan percentage                          (integer)
#  recon resolution (x y)                   (2*integer)
#  rescale intercept                        (float)
#  rescale slope                            (float)
#  scale slope                              (float)
#  window center                            (integer)
#  window width                             (integer)
#  image angulation (ap,fh,rl in degrees )  (3*float)
#  image offcentre (ap,fh,rl in mm )        (3*float)
#  slice thickness (in mm )                 (float)
#  slice gap (in mm )                       (float)
#  image_display_orientation                (integer)
#  slice orientation ( TRA/SAG/COR )        (integer)
#  fmri_status_indication                   (integer)
#  image_type_ed_es  (end diast/end syst)   (integer)
#  pixel spacing (x,y) (in mm)              (2*float)
#  echo_time                                (float)
#  dyn_scan_begin_time                      (float)
#  trigger_time                             (float)
#  diffusion_b_factor                       (float)
#  number of averages                       (integer)
#  image_flip_angle (in degrees)            (float)
#  cardiac frequency   (bpm)                (integer)
#  minimum RR-interval (in ms)              (integer)
#  maximum RR-interval (in ms)              (integer)
#  TURBO factor  <0=no turbo>               (integer)
#  Inversion delay (in ms)                  (float)
#  diffusion b value number    (imagekey!)  (integer)
#  gradient orientation number (imagekey!)  (integer)
#  contrast type                            (string)
#  diffusion anisotropy type                (string)
#  diffusion (ap, fh, rl)                   (3*float)
#  label type (ASL)            (imagekey!)  (integer)
#
# === IMAGE INFORMATION ==========================================================
#  sl ec  dyn ph ty    idx pix scan% rec size                (re)scale              window        angulation              offcentre        thick   gap   info      spacing     echo     dtime   ttime    diff  avg  flip    freq   RR-int  turbo delay b grad cont anis         diffusion       L.ty

  1   1    1  1 0 2     0  16   100  256  256     0.00000   5.59634 2.47714e-004    34    59  -0.36  -0.81  -0.03  -13.56   -0.22  100.84  1.200  0.000 0 2 0 2  1.000  1.000   3.13    0.00     0.00    0.00   1    8.00     0    0    0   240   0.0  1   1    7    0   0.000    0.000    0.000  1
  2   1    1  1 0 2     1  16   100  256  256     0.00000   5.59634 2.47714e-004    37    65  -0.36  -0.81  -0.03  -13.54   -0.23   99.64  1.200  0.000 0 2 0 2  1.000  1.000   3.13    0.00     0.00    0.00   1    8.00     0    0    0   240   0.0  1   1    7    0   0.000    0.000    0.000  1
  3   1    1  1 0 2     2  16   100  256  256     0.00000   5.59634 2.47714e-004    42    72  -0.36  -0.81  -0.03  -13.53   -0.24   98.44  1.200  0.000 0 2 0 2  1.000  1.000   3.13    0.00     0.00    0.00   1    8.00     0    0    0   240   0.0  1   1    7    0   0.000    0.000    0.000  1
  4   1    1  1 0 2     3  16   100  256  256     0.00000   5.59634 2.47714e-004    41    71  -0.36  -0.81  -0.03  -13.51   -0.25   97.24  1.200  0.000 0 2 0 2  1.000  1.000   3.13    0.00     0.00    0.00   1    8.00     0    0    0   240   0.0  1   1    7    0   0.000    0.000    0.000  1
  5   1    1  1 0 2     4  16   100  256  256     0.00000   5.59634 2.47714e-004    46    80  -0.36  -0.81  -0.03  -13.49   -0.25   96.04  1.200  0.000 0 2 0 2  1.000  1.000   3.13    0.00     0.00    0.00   1    8.00     0    0    0   240   0.0  1   1    7    0   0.000    0.000    0.000  1
  6   1    1  1 0 2     5  16   100  256  256     0.00000   5.59634 2.47714e-004    48    84  -0.36  -0.81  -0.03  -13.48   -0.26   94.84  1.200  0.000 0 2 0 2  1.000  1.000   3.13    0.00     0.00    0.00   1    8.00     0    0    0   240   0.0  1   1    7    0   0.000    0.000    0.000  1
  7   1    1  1 0 2     6  16   100  256  256     0.00000   5.59634 2.47714e-004    45    79  -0.36  -0.81  -0.03  -13.46   -0.27   93.64  1.200  0.000 0 2 0 2  1.000  1.000   3.13    0.00     0.00    0.00   1    8.00     0    0    0   240   0.0  1   1    7    0   0.000    0.000    0.000  1
  8   1    1  1 0 2     7  16   100  256  256     0.00000   5.59634 2.47714e-004    49    85  -0.36  -0.81  -0.03  -13.44   -0.28   92.44  1.200  0.000 0 2 0 2  1.000  1.000   3.13    0.00     0.00    0.00   1    8.00     0    0    0   240   0.0  1   1    7    0   0.000    0.000    0.000  1
  9   1    1  1 0 2     8  16   100  256  256     0.00000   5.59634 2.47714e-004    50    88  -0.36  -0.81  -0.03  -13.43   -0.28   91.24  1.200  0.000 0 2 0 2  1.000  1.000   3.13    0.00     0.00    0.00   1    8.00     0    0    0   240   0.0  1   1    7    0   0.000    0.000    0.000  1
 10   1    1  1 0 2     9  16   100  256  256     0.00000   5.59634 2.47714e-004    51    89  -0.36  -0.81  -0.03  -13.41   -0.29   90.04  1.200  0.000 0 2 0 2  1.000  1.000   3.13    0.00     0.00    0.00   1    8.00     0    0    0   240   0.0  1   1    7    0   0.000    0.000    0.000  1
 11   1    1  1 0 2    10  16   100  256  256     0.00000   5.59634 2.47714e-004    57    99  -0.36  -0.81  -0.03  -13.39   -0.30   88.84  1.200  0.000 0 2 0 2  1.000  1.000   3.13    0.00     0.00    0.00   1    8.00     0    0    0   240   0.0  1   1    7    0   0.000    0.000    0.000  1
 12   1    1  1 0 2    11  16   100  256  256     0.00000   5.59634 2.47714e-004    54    94  -0.36  -0.81  -0.03  -13.37   -0.31   87.64  1.200  0.000 0 2 0 2  1.000  1.000   3.13    0.00     0.00    0.00   1    8.00     0    0    0   240   0.0  1   1    7    0   0.000    0.000    0.000  1
 13   1    1  1 0 2    12  16   100  256  256     0.00000   5.59634 2.47714e-004    54    94  -0.36  -0.81  -0.03  -13.36   -0.31   86.44  1.200  0.000 0 2 0 2  1.000  1.000   3.13    0.00     0.00    0.00   1    8.00     0    0    0   240   0.0  1   1    7    0   0.000    0.000    0.000  1
 14   1    1  1 0 2    13  16   100  256  256     0.00000   5.59634 2.47714e-004    57    99  -0.36  -0.81  -0.03  -13.34   -0.32   85.24  1.200  0.000 0 2 0 2  1.000  1.000   3.13    0.00     0.00    0.00   1    8.00     0    0    0   240   0.0  1   1    7    0   0.000    0.000    0.000  1
 15   1    1  1 0 2    14  16   100  256  256     0.00000   5.59634 2.47714e-004    66   114  -0.36  -0.81  -0.03  -13.32   -0.33   84.04  1.200  0.000 0 2 0 2  1.000  1.000   3.13    0.00     0.00    0.00   1    8.00     0    0    0   240   0.0  1   1    7    0   0.000    0.000    0.000  1
 16   1    1  1 0 2    15  16   100  256  256     0.00000   5.59634 2.47714e-004   100   174  -0.36  -0.81  -0.03  -13.31   -0.34   82.84  1.200  0.000 0 2 0 2  1.000  1.000   3.13    0.00     0.00    0.00   1    8.00     0    0    0   240   0.0  1   1    7    0   0.000    0.000    0.000  1
 17   1    1  1 0 2    16  16   100  256  256     0.00000   5.59634 2.47714e-004   321   557  -0.36  -0.81  -0.03  -13.29   -0.34   81.64  1.200  0.000 0 2 0 2  1.000  1.000   3.13    0.00     0.00    0.00   1    8.00     0    0    0   240   0.0  1   1    7    0   0.000    0.000    0.000  1
 18   1    1  1 0 2    17  16   100  256  256     0.00000   5.59634 2.47714e-004   441   767  -0.36  -0.81  -0.03  -13.27   -0.35   80.44  1.200  0.000 0 2 0 2  1.000  1.000   3.13    0.00     0.00    0.00   1    8.00     0    0    0   240   0.0  1   1    7    0   0.000    0.000    0.000  1
 19   1    1  1 0 2    18  16   100  256  256     0.00000   5.59634 2.47714e-004   605  1051  -0.36  -0.81  -0.03  -13.26   -0.36   79.24  1.200  0.000 0 2 0 2  1.000  1.000   3.13    0.00     0.00    0.00   1    8.00     0    0    0   240   0.0  1   1    7    0   0.000    0.000    0.000  1
 20   1    1  1 0 2    19  16   100  256  256     0.00000   5.59634 2.47714e-004   783  1361  -0.36  -0.81  -0.03  -13.24   -0.37   78.04  1.200  0.000 0 2 0 2  1.000  1.000   3.13    0.00     0.00    0.00   1    8.00     0    0    0   240   0.0  1   1    7    0   0.000    0.000    0.000  1
 21   1    1  1 0 2    20  16   100  256  256     0.00000   5.59634 2.47714e-004   796  1384  -0.36  -0.81  -0.03  -13.22   -0.37   76.84  1.200  0.000 0 2 0 2  1.000  1.000   3.13    0.00     0.00    0.00   1    8.00     0    0    0   240   0.0  1   1    7    0   0.000    0.000    0.000  1
 22   1    1  1 0 2    21  16   100  256  256     0.00000   5.59634 2.47714e-004   791  1376  -0.36  -0.81  -0.03  -13.21   -0.38   75.64  1.200  0.000 0 2 0 2  1.000  1.000   3.13    0.00     0.00    0.00   1    8.00     0    0    0   240   0.0  1   1    7    0   0.000    0.000    0.000  1
 23   1    1  1 0 2    22  16   100  256  256     0.00000   5.59634 2.47714e-004   803  1395  -0.36  -0.81  -0.03  -13.19   -0.39   74.44  1.200  0.000 0 2 0 2  1.000  1.000   3.13    0.00     0.00    0.00   1    8.00     0    0    0   240   0.0  1   1    7    0   0.000    0.000    0.000  1
 24   1    1  1 0 2    23  16   100  256  256     0.00000   5.59634 2.47714e-004   818  1422  -0.36  -0.81  -0.03  -13.17   -0.40   73.24  1.200  0.000 0 2 0 2  1.000  1.000   3.13    0.00     0.00    0.00   1    8.00     0    0    0   240   0.0  1   1    7    0   0.000    0.000    0.000  1
 25   1    1  1 0 2    24  16   100  256  256     0.00000   5.59634 2.47714e-004   897  1560  -0.36  -0.81  -0.03  -13.16   -0.40   72.04  1.200  0.000 0 2 0 2  1.000  1.000   3.13    0.00     0.00    0.00   1    8.00     0    0    0   240   0.0  1   1    7    0   0.000    0.000    0.000  1
 26   1    1  1 0 2    25  16   100  256  256     0.00000   5.59634 2.47714e-004   911  1583  -0.36  -0.81  -0.03  -13.14   -0.41   70.84  1.200  0.000 0 2 0 2  1.000  1.000   3.13    0.00     0.00    0.00   1    8.00     0    0    0   240   0.0  1   1    7    0   0.000    0.000    0.000  1
 27   1    1  1 0 2    26  16   100  256  256     0.00000   5.59634 2.47714e-004   972  1689  -0.36  -0.81  -0.03  -13.12   -0.42   69.64  1.200  0.000 0 2 0 2  1.000  1.000   3.13    0.00     0.00    0.00   1    8.00     0    0    0   240   0.0  1   1    7    0   0.000    0.000    0.000  1
 28   1    1  1 0 2    27  16   100  256  256     0.00000   5.59634 2.47714e-004  1015  1765  -0.36  -0.81  -0.03  -13.10   -0.43   68.44  1.200  0.000 0 2 0 2  1.000  1.000   3.13    0.00     0.00    0.00   1    8.00     0    0    0   240   0.0  1   1    7    0   0.000    0.000    0.000  1
 29   1    1  1 0 2    28  16   100  256  256     0.00000   5.59634 2.47714e-004  1059  1841  -0.36  -0.81  -0.03  -13.09   -0.43   67.24  1.200  0.000 0 2 0 2  1.000  1.000   3.13    0.00     0.00    0.00   1    8.00     0    0    0   240   0.0  1   1    7    0   0.000    0.000    0.000  1
 30   1    1  1 0 2    29  16   100  256  256     0.00000   5.59634 2.47714e-004  1095  1903  -0.36  -0.81  -0.03  -13.07   -0.44   66.04  1.200  0.000 0 2 0 2  1.000  1.000   3.13    0.00     0.00    0.00   1    8.00     0    0    0   240   0.0  1   1    7    0   0.000    0.000    0.000  1
 31   1    1  1 0 2    30  16   100  256  256     0.00000   5.59634 2.47714e-004  1106  1922  -0.36  -0.81  -0.03  -13.05   -0.45   64.84  1.200  0.000 0 2 0 2  1.000  1.000   3.13    0.00     0.00    0.00   1    8.00     0    0    0   240   0.0  1   1    7    0   0.000    0.000    0.000  1
 32   1    1  1 0 2    31  16   100  256  256     0.00000   5.59634 2.47714e-004  1123  1953  -0.36  -0.81  -0.03  -13.04   -0.46   63.64  1.200  0.000 0 2 0 2  1.000  1.000   3.13    0.00     0.00    0.00   1    8.00     0    0    0   240   0.0  1   1    7    0   0.000    0.000    0.000  1
 33   1    1  1 0 2    32  16   100  256  256     0.00000   5.59634 2.47714e-004  1175  2042  -0.36  -0.81  -0.03  -13.02   -0.46   62.44  1.200  0.000 0 2 0 2  1.000  1.000   3.13    0.00     0.00    0.00   1    8.00     0    0    0   240   0.0  1   1    7    0   0.000    0.000    0.000  1
 34   1    1  1 0 2    33  16   100  256  256     0.00000   5.59634 2.47714e-004  1221  2122  -0.36  -0.81  -0.03  -13.00   -0.47   61.24  1.200  0.000 0 2 0 2  1.000  1.000   3.13    0.00     0.00    0.00   1    8.00     0    0    0   240   0.0  1   1    7    0   0.000    0.000    0.000  1
 35   1    1  1 0 2    34  16   100  256  256     0.00000   5.59634 2.47714e-004  1185  2060  -0.36  -0.81  -0.03  -12.99   -0.48   60.04  1.200  0.000 0 2 0 2  1.000  1.000   3.13    0.00     0.00    0.00   1    8.00     0    0    0   240   0.0  1   1    7    0   0.000    0.000    0.000  1
 36   1    1  1 0 2    35  16   100  256  256     0.00000   5.59634 2.47714e-004  1181  2053  -0.36  -0.81  -0.03  -12.97   -0.49   58.84  1.200  0.000 0 2 0 2  1.000  1.000   3.13    0.00     0.00    0.00   1    8.00     0    0    0   240   0.0  1   1    7    0   0.000    0.000    0.000  1
 37   1    1  1 0 2    36  16   100  256  256     0.00000   5.59634 2.47714e-004  1164  2023  -0.36  -0.81  -0.03  -12.95   -0.49   57.64  1.200  0.000 0 2 0 2  1.000  1.000   3.13    0.00     0.00    0.00   1    8.00     0    0    0   240   0.0  1   1    7    0   0.000    0.000    0.000  1
 38   1    1  1 0 2    37  16   100  256  256     0.00000   5.59634 2.47714e-004  1157  2010  -0.36  -0.81  -0.03  -12.94   -0.50   56.44  1.200  0.000 0 2 0 2  1.000  1.000   3.13    0.00     0.00    0.00   1    8.00     0    0    0   240   0.0  1   1    7    0   0.000    0.000    0.000  1
 39   1    1  1 0 2    38  16   100  256  256     0.00000   5.59634 2.47714e-004  1146  1992  -0.36  -0.81  -0.03  -12.92   -0.51   55.24  1.200  0.000 0 2 0 2  1.000  1.000   3.13    0.00     0.00    0.00   1    8.00     0    0    0   240   0.0  1   1    7    0   0.000    0.000    0.000  1
 40   1    1  1 0 2    39  16   100  256  256     0.00000   5.59634 2.47714e-004  1129  1963  -0.36  -0.81  -0.03  -12.90   -0.52   54.04  1.200  0.000 0 2 0 2  1.000  1.000   3.13    0.00     0.00    0.00   1    8.00     0    0    0   240   0.0  1   1    7    0   0.000    0.000    0.000  1
 41   1    1  1 0 2    40  16   100  256  256     0.00000   5.59634 2.47714e-004  1139  1979  -0.36  -0.81  -0.03  -12.88   -0.52   52.84  1.200  0.000 0 2 0 2  1.000  1.000   3.13    0.00     0.00    0.00   1    8.00     0    0    0   240   0.0  1   1    7    0   0.000    0.000    0.000  1
 42   1    1  1 0 2    41  16   100  256  256     0.00000   5.59634 2.47714e-004  1114  1937  -0.36  -0.81  -0.03  -12.87   -0.53   51.64  1.200  0.000 0 2 0 2  1.000  1.000   3.13    0.00     0.00    0.00   1    8.00     0    0    0   240   0.0  1   1    7    0   0.000    0.000    0.000  1
 43   1    1  1 0 2    42  16   100  256  256     0.00000   5.59634 2.47714e-004  1092  1899  -0.36  -0.81  -0.03  -12.85   -0.54   50.44  1.200  0.000 0 2 0 2  1.000  1.000   3.13    0.00     0.00    0.00   1    8.00     0    0    0   240   0.0  1   1    7    0   0.000    0.000    0.000  1
 44   1    1  1 0 2    43  16   100  256  256     0.00000   5.59634 2.47714e-004  1089  1893  -0.36  -0.81  -0.03  -12.83   -0.55   49.24  1.200  0.000 0 2 0 2  1.000  1.000   3.13    0.00     0.00    0.00   1    8.00     0    0    0   240   0.0  1   1    7    0   0.000    0.000    0.000  1
 45   1    1  1 0 2    44  16   100  256  256     0.00000   5.59634 2.47714e-004  1084  1885  -0.36  -0.81  -0.03  -12.82   -0.55   48.04  1.200  0.000 0 2 0 2  1.000  1.000   3.13    0.00     0.00    0.00   1    8.00     0    0    0   240   0.0  1   1    7    0   0.000    0.000    0.000  1
 46   1    1  1 0 2    45  16   100  256  256     0.00000   5.59634 2.47714e-004  1095  1903  -0.36  -0.81  -0.03  -12.80   -0.56   46.84  1.200  0.000 0 2 0 2  1.000  1.000   3.13    0.00     0.00    0.00   1    8.00     0    0    0   240   0.0  1   1    7    0   0.000    0.000    0.000  1
 47   1    1  1 0 2    46  16   100  256  256     0.00000   5.59634 2.47714e-004  1080  1878  -0.36  -0.81  -0.03  -12.78   -0.57   45.64  1.200  0.000 0 2 0 2  1.000  1.000   3.13    0.00     0.00    0.00   1    8.00     0    0    0   240   0.0  1   1    7    0   0.000    0.000    0.000  1
 48   1    1  1 0 2    47  16   100  256  256     0.00000   5.59634 2.47714e-004  1086  1887  -0.36  -0.81  -0.03  -12.77   -0.57   44.44  1.200  0.000 0 2 0 2  1.000  1.000   3.13    0.00     0.00    0.00   1    8.00     0    0    0   240   0.0  1   1    7    0   0.000    0.000    0.000  1
 49   1    1  1 0 2    48  16   100  256  256     0.00000   5.59634 2.47714e-004  1085  1886  -0.36  -0.81  -0.03  -12.75   -0.58   43.24  1.200  0.000 0 2 0 2  1.000  1.000   3.13    0.00     0.00    0.00   1    8.00     0    0    0   240   0.0  1   1    7    0   0.000    0.000    0.000  1
 50   1    1  1 0 2    49  16   100  256  256     0.00000   5.59634 2.47714e-004  1085  1887  -0.36  -0.81  -0.03  -12.73   -0.59   42.04  1.200  0.000 0 2 0 2  1.000  1.000   3.13    0.00     0.00    0.00   1    8.00     0    0    0   240   0.0  1   1    7    0   0.000    0.000    0.000  1
 51   1    1  1 0 2    50  16   100  256  256     0.00000   5.59634 2.47714e-004  1099  1911  -0.36  -0.81  -0.03  -12.72   -0.60   40.85  1.200  0.000 0 2 0 2  1.000  1.000   3.13    0.00     0.00    0.00   1    8.00     0    0    0   240   0.0  1   1    7    0   0.000    0.000    0.000  1
 52   1    1  1 0 2    51  16   100  256  256     0.00000   5.59634 2.47714e-004  1095  1903  -0.36  -0.81  -0.03  -12.70   -0.60   39.65  1.200  0.000 0 2 0 2  1.000  1.000   3.13    0.00     0.00    0.00   1    8.00     0    0    0   240   0.0  1   1    7    0   0.000    0.000    0.000  1
 53   1    1  1 0 2    52  16   100  256  256     0.00000   5.59634 2.47714e-004  1115  1938  -0.36  -0.81  -0.03  -12.68   -0.61   38.45  1.200  0.000 0 2 0 2  1.000  1.000   3.13    0.00     0.00    0.00   1    8.00     0    0    0   240   0.0  1   1    7    0   0.000    0.000    0.000  1
 54   1    1  1 0 2    53  16   100  256  256     0.00000   5.59634 2.47714e-004  1154  2006  -0.36  -0.81  -0.03  -12.67   -0.62   37.25  1.200  0.000 0 2 0 2  1.000  1.000   3.13    0.00     0.00    0.00   1    8.00     0    0    0   240   0.0  1   1    7    0   0.000    0.000    0.000  1
 55   1    1  1 0 2    54  16   100  256  256     0.00000   5.59634 2.47714e-004  1128  1960  -0.36  -0.81  -0.03  -12.65   -0.63   36.05  1.200  0.000 0 2 0 2  1.000  1.000   3.13    0.00     0.00    0.00   1    8.00     0    0    0   240   0.0  1   1    7    0   0.000    0.000    0.000  1
 56   1    1  1 0 2    55  16   100  256  256     0.00000   5.59634 2.47714e-004  1261  2193  -0.36  -0.81  -0.03  -12.63   -0.63   34.85  1.200  0.000 0 2 0 2  1.000  1.000   3.13    0.00     0.00    0.00   1    8.00     0    0    0   240   0.0  1   1    7    0   0.000    0.000    0.000  1
 57   1    1  1 0 2    56  16   100  256  256     0.00000   5.59634 2.47714e-004  1368  2378  -0.36  -0.81  -0.03  -12.61   -0.64   33.65  1.200  0.000 0 2 0 2  1.000  1.000   3.13    0.00     0.00    0.00   1    8.00     0    0    0   240   0.0  1   1    7    0   0.000    0.000    0.000  1
 58   1    1  1 0 2    57  16   100  256  256     0.00000   5.59634 2.47714e-004  1300  2259  -0.36  -0.81  -0.03  -12.60   -0.65   32.45  1.200  0.000 0 2 0 2  1.000  1.000   3.13    0.00     0.00    0.00   1    8.00     0    0    0   240   0.0  1   1    7    0   0.000    0.000    0.000  1
 59   1    1  1 0 2    58  16   100  256  256     0.00000   5.59634 2.47714e-004  1335  2320  -0.36  -0.81  -0.03  -12.58   -0.66   31.25  1.200  0.000 0 2 0 2  1.000  1.000   3.13    0.00     0.00    0.00   1    8.00     0    0    0   240   0.0  1   1    7    0   0.000    0.000    0.000  1
 60   1    1  1 0 2    59  16   100  256  256     0.00000   5.59634 2.47714e-004  1447  2516  -0.36  -0.81  -0.03  -12.56   -0.66   30.05  1.200  0.000 0 2 0 2  1.000  1.000   3.13    0.00     0.00    0.00   1    8.00     0    0    0   240   0.0  1   1    7    0   0.000    0.000    0.000  1
 61   1    1  1 0 2    60  16   100  256  256     0.00000   5.59634 2.47714e-004  1507  2619  -0.36  -0.81  -0.03  -12.55   -0.67   28.85  1.200  0.000 0 2 0 2  1.000  1.000   3.13    0.00     0.00    0.00   1    8.00     0    0    0   240   0.0  1   1    7    0   0.000    0.000    0.000  1
 62   1    1  1 0 2    61  16   100  256  256     0.00000   5.59634 2.47714e-004  1386  2409  -0.36  -0.81  -0.03  -12.53   -0.68   27.65  1.200  0.000 0 2 0 2  1.000  1.000   3.13    0.00     0.00    0.00   1    8.00     0    0    0   240   0.0  1   1    7    0   0.000    0.000    0.000  1
 63   1    1  1 0 2    62  16   100  256  256     0.00000   5.59634 2.47714e-004  1322  2298  -0.36  -0.81  -0.03  -12.51   -0.69   26.45  1.200  0.000 0 2 0 2  1.000  1.000   3.13    0.00     0.00    0.00   1    8.00     0    0    0   240   0.0  1   1    7    0   0.000    0.000    0.000  1
 64   1    1  1 0 2    63  16   100  256  256     0.00000   5.59634 2.47714e-004  1370  2381  -0.36  -0.81  -0.03  -12.50   -0.69   25.25  1.200  0.000 0 2 0 2  1.000  1.000   3.13    0.00     0.00    0.00   1    8.00     0    0    0   240   0.0  1   1    7    0   0.000    0.000    0.000  1
 65   1    1  1 0 2    64  16   100  256  256     0.00000   5.59634 2.47714e-004  1281  2227  -0.36  -0.81  -0.03  -12.48   -0.70   24.05  1.200  0.000 0 2 0 2  1.000  1.000   3.13    0.00     0.00    0.00   1    8.00     0    0    0   240   0.0  1   1    7    0   0.000    0.000    0.000  1
 66   1    1  1 0 2    65  16   100  256  256     0.00000   5.59634 2.47714e-004  1244  2162  -0.36  -0.81  -0.03  -12.46   -0.71   22.85  1.200  0.000 0 2 0 2  1.000  1.000   3.13    0.00     0.00    0.00   1    8.00     0    0    0   240   0.0  1   1    7    0   0.000    0.000    0.000  1
 67   1    1  1 0 2    66  16   100  256  256     0.00000   5.59634 2.47714e-004  1189  2066  -0.36  -0.81  -0.03  -12.45   -0.72   21.65  1.200  0.000 0 2 0 2  1.000  1.000   3.13    0.00     0.00    0.00   1    8.00     0    0    0   240   0.0  1   1    7    0   0.000    0.000    0.000  1
 68   1    1  1 0 2    67  16   100  256  256     0.00000   5.59634 2.47714e-004  1178  2049  -0.36  -0.81  -0.03  -12.43   -0.72   20.45  1.200  0.000 0 2 0 2  1.000  1.000   3.13    0.00     0.00    0.00   1    8.00     0    0    0   240   0.0  1   1    7    0   0.000    0.000    0.000  1
 69   1    1  1 0 2    68  16   100  256  256     0.00000   5.59634 2.47714e-004  1174  2041  -0.36  -0.81  -0.03  -12.41   -0.73   19.25  1.200  0.000 0 2 0 2  1.000  1.000   3.13    0.00     0.00    0.00   1    8.00     0    0    0   240   0.0  1   1    7    0   0.000    0.000    0.000  1
 70   1    1  1 0 2    69  16   100  256  256     0.00000   5.59634 2.47714e-004  1249  2171  -0.36  -0.81  -0.03  -12.40   -0.74   18.05  1.200  0.000 0 2 0 2  1.000  1.000   3.13    0.00     0.00    0.00   1    8.00     0    0    0   240   0.0  1   1    7    0   0.000    0.000    0.000  1
 71   1    1  1 0 2    70  16   100  256  256     0.00000   5.59634 2.47714e-004  1407  2447  -0.36  -0.81  -0.03  -12.38   -0.75   16.85  1.200  0.000 0 2 0 2  1.000  1.000   3.13    0.00     0.00    0.00   1    8.00     0    0    0   240   0.0  1   1    7    0   0.000    0.000    0.000  1
 72   1    1  1 0 2    71  16   100  256  256     0.00000   5.59634 2.47714e-004  1337  2324  -0.36  -0.81  -0.03  -12.36   -0.75   15.65  1.200  0.000 0 2 0 2  1.000  1.000   3.13    0.00     0.00    0.00   1    8.00     0    0    0   240   0.0  1   1    7    0   0.000    0.000    0.000  1
 73   1    1  1 0 2    72  16   100  256  256     0.00000   5.59634 2.47714e-004  1158  2012  -0.36  -0.81  -0.03  -12.34   -0.76   14.45  1.200  0.000 0 2 0 2  1.000  1.000   3.13    0.00     0.00    0.00   1    8.00     0    0    0   240   0.0  1   1    7    0   0.000    0.000    0.000  1
 74   1    1  1 0 2    73  16   100  256  256     0.00000   5.59634 2.47714e-004  1154  2006  -0.36  -0.81  -0.03  -12.33   -0.77   13.25  1.200  0.000 0 2 0 2  1.000  1.000   3.13    0.00     0.00    0.00   1    8.00     0    0    0   240   0.0  1   1    7    0   0.000    0.000    0.000  1
 75   1    1  1 0 2    74  16   100  256  256     0.00000   5.59634 2.47714e-004  1061  1845  -0.36  -0.81  -0.03  -12.31   -0.78   12.05  1.200  0.000 0 2 0 2  1.000  1.000   3.13    0.00     0.00    0.00   1    8.00     0    0    0   240   0.0  1   1    7    0   0.000    0.000    0.000  1
 76   1    1  1 0 2    75  16   100  256  256     0.00000   5.59634 2.47714e-004  1015  1764  -0.36  -0.81  -0.03  -12.29   -0.78   10.85  1.200  0.000 0 2 0 2  1.000  1.000   3.13    0.00     0.00    0.00   1    8.00     0    0    0   240   0.0  1   1    7    0   0.000    0.000    0.000  1
 77   1    1  1 0 2    76  16   100  256  256     0.00000   5.59634 2.47714e-004   987  1716  -0.36  -0.81  -0.03  -12.28   -0.79    9.65  1.200  0.000 0 2 0 2  1.000  1.000   3.13    0.00     0.00    0.00   1    8.00     0    0    0   240   0.0  1   1    7    0   0.000    0.000    0.000  1
 78   1    1  1 0 2    77  16   100  256  256     0.00000   5.59634 2.47714e-004  1004  1745  -0.36  -0.81  -0.03  -12.26   -0.80    8.45  1.200  0.000 0 2 0 2  1.000  1.000   3.13    0.00     0.00    0.00   1    8.00     0    0    0   240   0.0  1   1    7    0   0.000    0.000    0.000  1
 79   1    1  1 0 2    78  16   100  256  256     0.00000   5.59634 2.47714e-004   977  1698  -0.36  -0.81  -0.03  -12.24   -0.81    7.25  1.200  0.000 0 2 0 2  1.000  1.000   3.13    0.00     0.00    0.00   1    8.00     0    0    0   240   0.0  1   1    7    0   0.000    0.000    0.000  1
 80   1    1  1 0 2    79  16   100  256  256     0.00000   5.59634 2.47714e-004   991  1723  -0.36  -0.81  -0.03  -12.23   -0.81    6.05  1.200  0.000 0 2 0 2  1.000  1.000   3.13    0.00     0.00    0.00   1    8.00     0    0    0   240   0.0  1   1    7    0   0.000    0.000    0.000  1
 81   1    1  1 0 2    80  16   100  256  256     0.00000   5.59634 2.47714e-004  1048  1822  -0.36  -0.81  -0.03  -12.21   -0.82    4.85  1.200  0.000 0 2 0 2  1.000  1.000   3.13    0.00     0.00    0.00   1    8.00     0    0    0   240   0.0  1   1    7    0   0.000    0.000    0.000  1
 82   1    1  1 0 2    81  16   100  256  256     0.00000   5.59634 2.47714e-004  1018  1770  -0.36  -0.81  -0.03  -12.19   -0.83    3.65  1.200  0.000 0 2 0 2  1.000  1.000   3.13    0.00     0.00    0.00   1    8.00     0    0    0   240   0.0  1   1    7    0   0.000    0.000    0.000  1
 83   1    1  1 0 2    82  16   100  256  256     0.00000   5.59634 2.47714e-004  1031  1792  -0.36  -0.81  -0.03  -12.18   -0.84    2.45  1.200  0.000 0 2 0 2  1.000  1.000   3.13    0.00     0.00    0.00   1    8.00     0    0    0   240   0.0  1   1    7    0   0.000    0.000    0.000  1
 84   1    1  1 0 2    83  16   100  256  256     0.00000   5.59634 2.47714e-004  1016  1766  -0.36  -0.81  -0.03  -12.16   -0.84    1.25  1.200  0.000 0 2 0 2  1.000  1.000   3.13    0.00     0.00    0.00   1    8.00     0    0    0   240   0.0  1   1    7    0   0.000    0.000    0.000  1
