# === DATA DESCRIPTION FILE ======================================================
#
# CAUTION - Investigational device.
# Limited by Federal Law to investigational use.
#
#
# CLINICAL TRYOUT             Research image export tool     V4.2
#
# === GENERAL INFORMATION ========================================================
#
.    Protocol name                      :   WIP 3D FLAIR Sag UMich SENSE
.    Series Type                        :   Image   MRSERIES
.    Acquisition nr                     :   6
.    Reconstruction nr                  :   1
.    Scan Duration [sec]                :   528
.    Max. number of cardiac phases      :   1
.    Max. number of echoes              :   1
.    Max. number of slices/locations    :   327
.    Max. number of dynamics            :   1
.    Max. number of mixes               :   1
.    Patient position                   :   Head First Supine
.    Preparation direction              :   Anterior-Posterior
.    Technique                          :   TIR
.    Scan resolution  (x, y)            :   216  220
.    Scan mode                          :   3D
.    Repetition time [ms]               :   8000.000  
.    FOV (ap,fh,rl) [mm]                :   240.000  200.000  179.850
.    Water Fat shift [pixels]           :   0.858
.    Angulation midslice(ap,fh,rl)[degr]:   -0.356  -0.806  -0.030
.    Off Centre midslice(ap,fh,rl) [mm] :   -12.134  -0.854  -0.550
.    Flow compensation <0=no 1=yes> ?   :   1
.    Presaturation     <0=no 1=yes> ?   :   0
.    Phase encoding velocity [cm/sec]   :   0.000000  0.000000  0.000000
.    MTC               <0=no 1=yes> ?   :   0
.    SPIR              <0=no 1=yes> ?   :   1
.    EPI factor        <0,1=no EPI>     :   1
.    Dynamic scan      <0=no 1=yes> ?   :   0
.    Diffusion         <0=no 1=yes> ?   :   0
.    Diffusion echo time [ms]           :   0.0000
.    Max. number of diffusion values    :   1
.    Max. number of gradient orients    :   1
.    Number of label types   <0=no ASL> :   0
#
# === PIXEL VALUES =============================================================
#  PV = pixel value in REC file, FP = floating point value, DV = displayed value on console
#  RS = rescale slope,           RI = rescale intercept,    SS = scale slope
#  DV = PV * RS + RI             FP = DV / (RS * SS)
#
# === IMAGE INFORMATION DEFINITION =============================================
#  The rest of this file contains ONE line per image, this line contains the following information:
#
#  slice number                             (integer)
#  echo number                              (integer)
#  dynamic scan number                      (integer)
#  cardiac phase number                     (integer)
#  image_type_mr                            (integer)
#  scanning sequence                        (integer)
#  index in REC file (in images)            (integer)
#  image pixel size (in bits)               (integer)
#  scan percentage                          (integer)
#  recon resolution (x y)                   (2*integer)
#  rescale intercept                        (float)
#  rescale slope                            (float)
#  scale slope                              (float)
#  window center                            (integer)
#  window width                             (integer)
#  image angulation (ap,fh,rl in degrees )  (3*float)
#  image offcentre (ap,fh,rl in mm )        (3*float)
#  slice thickness (in mm )                 (float)
#  slice gap (in mm )                       (float)
#  image_display_orientation                (integer)
#  slice orientation ( TRA/SAG/COR )        (integer)
#  fmri_status_indication                   (integer)
#  image_type_ed_es  (end diast/end syst)   (integer)
#  pixel spacing (x,y) (in mm)              (2*float)
#  echo_time                                (float)
#  dyn_scan_begin_time                      (float)
#  trigger_time                             (float)
#  diffusion_b_factor                       (float)
#  number of averages                       (integer)
#  image_flip_angle (in degrees)            (float)
#  cardiac frequency   (bpm)                (integer)
#  minimum RR-interval (in ms)              (integer)
#  maximum RR-interval (in ms)              (integer)
#  TURBO factor  <0=no turbo>               (integer)
#  Inversion delay (in ms)                  (float)
#  diffusion b value number    (imagekey!)  (integer)
#  gradient orientation number (imagekey!)  (integer)
#  contrast type                            (string)
#  diffusion anisotropy type                (string)
#  diffusion (ap, fh, rl)                   (3*float)
#  label type (ASL)            (imagekey!)  (integer)
#
# === IMAGE INFORMATION ==========================================================
#  sl ec  dyn ph ty    idx pix scan% rec size                (re)scale              window        angulation              offcentre        thick   gap   info      spacing     echo     dtime   ttime    diff  avg  flip    freq   RR-int  turbo delay b grad cont anis         diffusion       L.ty

  1   1    1  1 0 0     0  16    79  576  576     0.00000   4.99438 1.28698e-003     8    14  -0.36  -0.81  -0.03  -13.39   -0.30   89.09  1.100 -0.550 0 2 0 2  0.417  0.417 331.30    0.00     0.00    0.00   1   90.00     0    0    0   110 2400.0  1   1    8    0   0.000    0.000    0.000  1
  2   1    1  1 0 0     1  16    79  576  576     0.00000   4.99438 1.28698e-003    20    35  -0.36  -0.81  -0.03  -13.39   -0.30   88.54  1.100 -0.550 0 2 0 2  0.417  0.417 331.30    0.00     0.00    0.00   1   90.00     0    0    0   110 2400.0  1   1    8    0   0.000    0.000    0.000  1
  3   1    1  1 0 0     2  16    79  576  576     0.00000   4.99438 1.28698e-003    24    41  -0.36  -0.81  -0.03  -13.38   -0.30   87.99  1.100 -0.550 0 2 0 2  0.417  0.417 331.30    0.00     0.00    0.00   1   90.00     0    0    0   110 2400.0  1   1    8    0   0.000    0.000    0.000  1
  4   1    1  1 0 0     3  16    79  576  576     0.00000   4.99438 1.28698e-003    23    41  -0.36  -0.81  -0.03  -13.37   -0.31   87.44  1.100 -0.550 0 2 0 2  0.417  0.417 331.30    0.00     0.00    0.00   1   90.00     0    0    0   110 2400.0  1   1    8    0   0.000    0.000    0.000  1
  5   1    1  1 0 0     4  16    79  576  576     0.00000   4.99438 1.28698e-003    24    41  -0.36  -0.81  -0.03  -13.36   -0.31   86.89  1.100 -0.550 0 2 0 2  0.417  0.417 331.30    0.00     0.00    0.00   1   90.00     0    0    0   110 2400.0  1   1    8    0   0.000    0.000    0.000  1
  6   1    1  1 0 0     5  16    79  576  576     0.00000   4.99438 1.28698e-003    25    43  -0.36  -0.81  -0.03  -13.36   -0.31   86.34  1.100 -0.550 0 2 0 2  0.417  0.417 331.30    0.00     0.00    0.00   1   90.00     0    0    0   110 2400.0  1   1    8    0   0.000    0.000    0.000  1
  7   1    1  1 0 0     6  16    79  576  576     0.00000   4.99438 1.28698e-003    27    47  -0.36  -0.81  -0.03  -13.35   -0.32   85.79  1.100 -0.550 0 2 0 2  0.417  0.417 331.30    0.00     0.00    0.00   1   90.00     0    0    0   110 2400.0  1   1    8    0   0.000    0.000    0.000  1
  8   1    1  1 0 0     7  16    79  576  576     0.00000   4.99438 1.28698e-003    30    53  -0.36  -0.81  -0.03  -13.34   -0.32   85.24  1.100 -0.550 0 2 0 2  0.417  0.417 331.30    0.00     0.00    0.00   1   90.00     0    0    0   110 2400.0  1   1    8    0   0.000    0.000    0.000  1
  9   1    1  1 0 0     8  16    79  576  576     0.00000   4.99438 1.28698e-003    31    54  -0.36  -0.81  -0.03  -13.33   -0.32   84.69  1.100 -0.550 0 2 0 2  0.417  0.417 331.30    0.00     0.00    0.00   1   90.00     0    0    0   110 2400.0  1   1    8    0   0.000    0.000    0.000  1
 10   1    1  1 0 0     9  16    79  576  576     0.00000   4.99438 1.28698e-003    33    57  -0.36  -0.81  -0.03  -13.33   -0.33   84.14  1.100 -0.550 0 2 0 2  0.417  0.417 331.30    0.00     0.00    0.00   1   90.00     0    0    0   110 2400.0  1   1    8    0   0.000    0.000    0.000  1
 11   1    1  1 0 0    10  16    79  576  576     0.00000   4.99438 1.28698e-003    37    64  -0.36  -0.81  -0.03  -13.32   -0.33   83.59  1.100 -0.550 0 2 0 2  0.417  0.417 331.30    0.00     0.00    0.00   1   90.00     0    0    0   110 2400.0  1   1    8    0   0.000    0.000    0.000  1
 12   1    1  1 0 0    11  16    79  576  576     0.00000   4.99438 1.28698e-003    42    73  -0.36  -0.81  -0.03  -13.31   -0.33   83.04  1.100 -0.550 0 2 0 2  0.417  0.417 331.30    0.00     0.00    0.00   1   90.00     0    0    0   110 2400.0  1   1    8    0   0.000    0.000    0.000  1
 13   1    1  1 0 0    12  16    79  576  576     0.00000   4.99438 1.28698e-003    45    78  -0.36  -0.81  -0.03  -13.30   -0.34   82.49  1.100 -0.550 0 2 0 2  0.417  0.417 331.30    0.00     0.00    0.00   1   90.00     0    0    0   110 2400.0  1   1    8    0   0.000    0.000    0.000  1
 14   1    1  1 0 0    13  16    79  576  576     0.00000   4.99438 1.28698e-003    71   123  -0.36  -0.81  -0.03  -13.29   -0.34   81.94  1.100 -0.550 0 2 0 2  0.417  0.417 331.30    0.00     0.00    0.00   1   90.00     0    0    0   110 2400.0  1   1    8    0   0.000    0.000    0.000  1
 15   1    1  1 0 0    14  16    79  576  576     0.00000   4.99438 1.28698e-003   129   223  -0.36  -0.81  -0.03  -13.29   -0.35   81.39  1.100 -0.550 0 2 0 2  0.417  0.417 331.30    0.00     0.00    0.00   1   90.00     0    0    0   110 2400.0  1   1    8    0   0.000    0.000    0.000  1
 16   1    1  1 0 0    15  16    79  576  576     0.00000   4.99438 1.28698e-003   163   283  -0.36  -0.81  -0.03  -13.28   -0.35   80.84  1.100 -0.550 0 2 0 2  0.417  0.417 331.30    0.00     0.00    0.00   1   90.00     0    0    0   110 2400.0  1   1    8    0   0.000    0.000    0.000  1
 17   1    1  1 0 0    16  16    79  576  576     0.00000   4.99438 1.28698e-003   175   303  -0.36  -0.81  -0.03  -13.27   -0.35   80.29  1.100 -0.550 0 2 0 2  0.417  0.417 331.30    0.00     0.00    0.00   1   90.00     0    0    0   110 2400.0  1   1    8    0   0.000    0.000    0.000  1
 18   1    1  1 0 0    17  16    79  576  576     0.00000   4.99438 1.28698e-003   187   324  -0.36  -0.81  -0.03  -13.26   -0.36   79.74  1.100 -0.550 0 2 0 2  0.417  0.417 331.30    0.00     0.00    0.00   1   90.00     0    0    0   110 2400.0  1   1    8    0   0.000    0.000    0.000  1
 19   1    1  1 0 0    18  16    79  576  576     0.00000   4.99438 1.28698e-003   211   367  -0.36  -0.81  -0.03  -13.26   -0.36   79.19  1.100 -0.550 0 2 0 2  0.417  0.417 331.30    0.00     0.00    0.00   1   90.00     0    0    0   110 2400.0  1   1    8    0   0.000    0.000    0.000  1
 20   1    1  1 0 0    19  16    79  576  576     0.00000   4.99438 1.28698e-003   232   403  -0.36  -0.81  -0.03  -13.25   -0.36   78.64  1.100 -0.550 0 2 0 2  0.417  0.417 331.30    0.00     0.00    0.00   1   90.00     0    0    0   110 2400.0  1   1    8    0   0.000    0.000    0.000  1
 21   1    1  1 0 0    20  16    79  576  576     0.00000   4.99438 1.28698e-003   232   404  -0.36  -0.81  -0.03  -13.24   -0.37   78.09  1.100 -0.550 0 2 0 2  0.417  0.417 331.30    0.00     0.00    0.00   1   90.00     0    0    0   110 2400.0  1   1    8    0   0.000    0.000    0.000  1
 22   1    1  1 0 0    21  16    79  576  576     0.00000   4.99438 1.28698e-003   227   395  -0.36  -0.81  -0.03  -13.23   -0.37   77.54  1.100 -0.550 0 2 0 2  0.417  0.417 331.30    0.00     0.00    0.00   1   90.00     0    0    0   110 2400.0  1   1    8    0   0.000    0.000    0.000  1
 23   1    1  1 0 0    22  16    79  576  576     0.00000   4.99438 1.28698e-003   231   402  -0.36  -0.81  -0.03  -13.22   -0.37   76.99  1.100 -0.550 0 2 0 2  0.417  0.417 331.30    0.00     0.00    0.00   1   90.00     0    0    0   110 2400.0  1   1    8    0   0.000    0.000    0.000  1
 24   1    1  1 0 0    23  16    79  576  576     0.00000   4.99438 1.28698e-003   241   419  -0.36  -0.81  -0.03  -13.22   -0.38   76.44  1.100 -0.550 0 2 0 2  0.417  0.417 331.30    0.00     0.00    0.00   1   90.00     0    0    0   110 2400.0  1   1    8    0   0.000    0.000    0.000  1
 25   1    1  1 0 0    24  16    79  576  576     0.00000   4.99438 1.28698e-003   250   434  -0.36  -0.81  -0.03  -13.21   -0.38   75.89  1.100 -0.550 0 2 0 2  0.417  0.417 331.30    0.00     0.00    0.00   1   90.00     0    0    0   110 2400.0  1   1    8    0   0.000    0.000    0.000  1
 26   1    1  1 0 0    25  16    79  576  576     0.00000   4.99438 1.28698e-003   256   446  -0.36  -0.81  -0.03  -13.20   -0.38   75.34  1.100 -0.550 0 2 0 2  0.417  0.417 331.30    0.00     0.00    0.00   1   90.00     0    0    0   110 2400.0  1   1    8    0   0.000    0.000    0.000  1
 27   1    1  1 0 0    26  16    79  576  576     0.00000   4.99438 1.28698e-003   266   462  -0.36  -0.81  -0.03  -13.19   -0.39   74.79  1.100 -0.550 0 2 0 2  0.417  0.417 331.30    0.00     0.00    0.00   1   90.00     0    0    0   110 2400.0  1   1    8    0   0.000    0.000    0.000  1
 28   1    1  1 0 0    27  16    79  576  576     0.00000   4.99438 1.28698e-003   270   470  -0.36  -0.81  -0.03  -13.19   -0.39   74.24  1.100 -0.550 0 2 0 2  0.417  0.417 331.30    0.00     0.00    0.00   1   90.00     0    0    0   110 2400.0  1   1    8    0   0.000    0.000    0.000  1
 29   1    1  1 0 0    28  16    79  576  576     0.00000   4.99438 1.28698e-003   285   496  -0.36  -0.81  -0.03  -13.18   -0.39   73.69  1.100 -0.550 0 2 0 2  0.417  0.417 331.30    0.00     0.00    0.00   1   90.00     0    0    0   110 2400.0  1   1    8    0   0.000    0.000    0.000  1
 30   1    1  1 0 0    29  16    79  576  576     0.00000   4.99438 1.28698e-003   318   552  -0.36  -0.81  -0.03  -13.17   -0.40   73.14  1.100 -0.550 0 2 0 2  0.417  0.417 331.30    0.00     0.00    0.00   1   90.00     0    0    0   110 2400.0  1   1    8    0   0.000    0.000    0.000  1
 31   1    1  1 0 0    30  16    79  576  576     0.00000   4.99438 1.28698e-003   343   596  -0.36  -0.81  -0.03  -13.16   -0.40   72.59  1.100 -0.550 0 2 0 2  0.417  0.417 331.30    0.00     0.00    0.00   1   90.00     0    0    0   110 2400.0  1   1    8    0   0.000    0.000    0.000  1
 32   1    1  1 0 0    31  16    79  576  576     0.00000   4.99438 1.28698e-003   369   642  -0.36  -0.81  -0.03  -13.16   -0.40   72.04  1.100 -0.550 0 2 0 2  0.417  0.417 331.30    0.00     0.00    0.00   1   90.00     0    0    0   110 2400.0  1   1    8    0   0.000    0.000    0.000  1
 33   1    1  1 0 0    32  16    79  576  576     0.00000   4.99438 1.28698e-003   403   700  -0.36  -0.81  -0.03  -13.15   -0.41   71.49  1.100 -0.550 0 2 0 2  0.417  0.417 331.30    0.00     0.00    0.00   1   90.00     0    0    0   110 2400.0  1   1    8    0   0.000    0.000    0.000  1
 34   1    1  1 0 0    33  16    79  576  576     0.00000   4.99438 1.28698e-003   428   743  -0.36  -0.81  -0.03  -13.14   -0.41   70.94  1.100 -0.550 0 2 0 2  0.417  0.417 331.30    0.00     0.00    0.00   1   90.00     0    0    0   110 2400.0  1   1    8    0   0.000    0.000    0.000  1
 35   1    1  1 0 0    34  16    79  576  576     0.00000   4.99438 1.28698e-003   429   746  -0.36  -0.81  -0.03  -13.13   -0.41   70.39  1.100 -0.550 0 2 0 2  0.417  0.417 331.30    0.00     0.00    0.00   1   90.00     0    0    0   110 2400.0  1   1    8    0   0.000    0.000    0.000  1
 36   1    1  1 0 0    35  16    79  576  576     0.00000   4.99438 1.28698e-003   429   747  -0.36  -0.81  -0.03  -13.12   -0.42   69.84  1.100 -0.550 0 2 0 2  0.417  0.417 331.30    0.00     0.00    0.00   1   90.00     0    0    0   110 2400.0  1   1    8    0   0.000    0.000    0.000  1
 37   1    1  1 0 0    36  16    79  576  576     0.00000   4.99438 1.28698e-003   443   769  -0.36  -0.81  -0.03  -13.12   -0.42   69.29  1.100 -0.550 0 2 0 2  0.417  0.417 331.30    0.00     0.00    0.00   1   90.00     0    0    0   110 2400.0  1   1    8    0   0.000    0.000    0.000  1
 38   1    1  1 0 0    37  16    79  576  576     0.00000   4.99438 1.28698e-003   488   849  -0.36  -0.81  -0.03  -13.11   -0.42   68.74  1.100 -0.550 0 2 0 2  0.417  0.417 331.30    0.00     0.00    0.00   1   90.00     0    0    0   110 2400.0  1   1    8    0   0.000    0.000    0.000  1
 39   1    1  1 0 0    38  16    79  576  576     0.00000   4.99438 1.28698e-003   524   911  -0.36  -0.81  -0.03  -13.10   -0.43   68.19  1.100 -0.550 0 2 0 2  0.417  0.417 331.30    0.00     0.00    0.00   1   90.00     0    0    0   110 2400.0  1   1    8    0   0.000    0.000    0.000  1
 40   1    1  1 0 0    39  16    79  576  576     0.00000   4.99438 1.28698e-003   537   934  -0.36  -0.81  -0.03  -13.09   -0.43   67.64  1.100 -0.550 0 2 0 2  0.417  0.417 331.30    0.00     0.00    0.00   1   90.00     0    0    0   110 2400.0  1   1    8    0   0.000    0.000    0.000  1
 41   1    1  1 0 0    40  16    79  576  576     0.00000   4.99438 1.28698e-003   544   945  -0.36  -0.81  -0.03  -13.09   -0.43   67.09  1.100 -0.550 0 2 0 2  0.417  0.417 331.30    0.00     0.00    0.00   1   90.00     0    0    0   110 2400.0  1   1    8    0   0.000    0.000    0.000  1
 42   1    1  1 0 0    41  16    79  576  576     0.00000   4.99438 1.28698e-003   546   948  -0.36  -0.81  -0.03  -13.08   -0.44   66.54  1.100 -0.550 0 2 0 2  0.417  0.417 331.30    0.00     0.00    0.00   1   90.00     0    0    0   110 2400.0  1   1    8    0   0.000    0.000    0.000  1
 43   1    1  1 0 0    42  16    79  576  576     0.00000   4.99438 1.28698e-003   549   954  -0.36  -0.81  -0.03  -13.07   -0.44   65.99  1.100 -0.550 0 2 0 2  0.417  0.417 331.30    0.00     0.00    0.00   1   90.00     0    0    0   110 2400.0  1   1    8    0   0.000    0.000    0.000  1
 44   1    1  1 0 0    43  16    79  576  576     0.00000   4.99438 1.28698e-003   584  1016  -0.36  -0.81  -0.03  -13.06   -0.44   65.44  1.100 -0.550 0 2 0 2  0.417  0.417 331.30    0.00     0.00    0.00   1   90.00     0    0    0   110 2400.0  1   1    8    0   0.000    0.000    0.000  1
 45   1    1  1 0 0    44  16    79  576  576     0.00000   4.99438 1.28698e-003   682  1185  -0.36  -0.81  -0.03  -13.05   -0.45   64.89  1.100 -0.550 0 2 0 2  0.417  0.417 331.30    0.00     0.00    0.00   1   90.00     0    0    0   110 2400.0  1   1    8    0   0.000    0.000    0.000  1
 46   1    1  1 0 0    45  16    79  576  576     0.00000   4.99438 1.28698e-003   787  1368  -0.36  -0.81  -0.03  -13.05   -0.45   64.34  1.100 -0.550 0 2 0 2  0.417  0.417 331.30    0.00     0.00    0.00   1   90.00     0    0    0   110 2400.0  1   1    8    0   0.000    0.000    0.000  1
 47   1    1  1 0 0    46  16    79  576  576     0.00000   4.99438 1.28698e-003   861  1497  -0.36  -0.81  -0.03  -13.04   -0.45   63.79  1.100 -0.550 0 2 0 2  0.417  0.417 331.30    0.00     0.00    0.00   1   90.00     0    0    0   110 2400.0  1   1    8    0   0.000    0.000    0.000  1
 48   1    1  1 0 0    47  16    79  576  576     0.00000   4.99438 1.28698e-003   934  1624  -0.36  -0.81  -0.03  -13.03   -0.46   63.24  1.100 -0.550 0 2 0 2  0.417  0.417 331.30    0.00     0.00    0.00   1   90.00     0    0    0   110 2400.0  1   1    8    0   0.000    0.000    0.000  1
 49   1    1  1 0 0    48  16    79  576  576     0.00000   4.99438 1.28698e-003   980  1704  -0.36  -0.81  -0.03  -13.02   -0.46   62.69  1.100 -0.550 0 2 0 2  0.417  0.417 331.30    0.00     0.00    0.00   1   90.00     0    0    0   110 2400.0  1   1    8    0   0.000    0.000    0.000  1
 50   1    1  1 0 0    49  16    79  576  576     0.00000   4.99438 1.28698e-003  1024  1780  -0.36  -0.81  -0.03  -13.02   -0.46   62.14  1.100 -0.550 0 2 0 2  0.417  0.417 331.30    0.00     0.00    0.00   1   90.00     0    0    0   110 2400.0  1   1    8    0   0.000    0.000    0.000  1
 51   1    1  1 0 0    50  16    79  576  576     0.00000   4.99438 1.28698e-003  1059  1840  -0.36  -0.81  -0.03  -13.01   -0.47   61.59  1.100 -0.550 0 2 0 2  0.417  0.417 331.30    0.00     0.00    0.00   1   90.00     0    0    0   110 2400.0  1   1    8    0   0.000    0.000    0.000  1
 52   1    1  1 0 0    51  16    79  576  576     0.00000   4.99438 1.28698e-003  1061  1845  -0.36  -0.81  -0.03  -13.00   -0.47   61.04  1.100 -0.550 0 2 0 2  0.417  0.417 331.30    0.00     0.00    0.00   1   90.00     0    0    0   110 2400.0  1   1    8    0   0.000    0.000    0.000  1
 53   1    1  1 0 0    52  16    79  576  576     0.00000   4.99438 1.28698e-003  1076  1870  -0.36  -0.81  -0.03  -12.99   -0.48   60.49  1.100 -0.550 0 2 0 2  0.417  0.417 331.30    0.00     0.00    0.00   1   90.00     0    0    0   110 2400.0  1   1    8    0   0.000    0.000    0.000  1
 54   1    1  1 0 0    53  16    79  576  576     0.00000   4.99438 1.28698e-003  1095  1903  -0.36  -0.81  -0.03  -12.98   -0.48   59.94  1.100 -0.550 0 2 0 2  0.417  0.417 331.30    0.00     0.00    0.00   1   90.00     0    0    0   110 2400.0  1   1    8    0   0.000    0.000    0.000  1
 55   1    1  1 0 0    54  16    79  576  576     0.00000   4.99438 1.28698e-003  1127  1960  -0.36  -0.81  -0.03  -12.98   -0.48   59.39  1.100 -0.550 0 2 0 2  0.417  0.417 331.30    0.00     0.00    0.00   1   90.00     0    0    0   110 2400.0  1   1    8    0   0.000    0.000    0.000  1
 56   1    1  1 0 0    55  16    79  576  576     0.00000   4.99438 1.28698e-003  1150  1998  -0.36  -0.81  -0.03  -12.97   -0.49   58.84  1.100 -0.550 0 2 0 2  0.417  0.417 331.30    0.00     0.00    0.00   1   90.00     0    0    0   110 2400.0  1   1    8    0   0.000    0.000    0.000  1
 57   1    1  1 0 0    56  16    79  576  576     0.00000   4.99438 1.28698e-003  1171  2036  -0.36  -0.81  -0.03  -12.96   -0.49   58.29  1.100 -0.550 0 2 0 2  0.417  0.417 331.30    0.00     0.00    0.00   1   90.00     0    0    0   110 2400.0  1   1    8    0   0.000    0.000    0.000  1
 58   1    1  1 0 0    57  16    79  576  576     0.00000   4.99438 1.28698e-003  1198  2082  -0.36  -0.81  -0.03  -12.95   -0.49   57.74  1.100 -0.550 0 2 0 2  0.417  0.417 331.30    0.00     0.00    0.00   1   90.00     0    0    0   110 2400.0  1   1    8    0   0.000    0.000    0.000  1
 59   1    1  1 0 0    58  16    79  576  576     0.00000   4.99438 1.28698e-003  1194  2076  -0.36  -0.81  -0.03  -12.95   -0.50   57.19  1.100 -0.550 0 2 0 2  0.417  0.417 331.30    0.00     0.00    0.00   1   90.00     0    0    0   110 2400.0  1   1    8    0   0.000    0.000    0.000  1
 60   1    1  1 0 0    59  16    79  576  576     0.00000   4.99438 1.28698e-003  1193  2073  -0.36  -0.81  -0.03  -12.94   -0.50   56.64  1.100 -0.550 0 2 0 2  0.417  0.417 331.30    0.00     0.00    0.00   1   90.00     0    0    0   110 2400.0  1   1    8    0   0.000    0.000    0.000  1
 61   1    1  1 0 0    60  16    79  576  576     0.00000   4.99438 1.28698e-003  1198  2083  -0.36  -0.81  -0.03  -12.93   -0.50   56.09  1.100 -0.550 0 2 0 2  0.417  0.417 331.30    0.00     0.00    0.00   1   90.00     0    0    0   110 2400.0  1   1    8    0   0.000    0.000    0.000  1
 62   1    1  1 0 0    61  16    79  576  576     0.00000   4.99438 1.28698e-003  1197  2081  -0.36  -0.81  -0.03  -12.92   -0.51   55.54  1.100 -0.550 0 2 0 2  0.417  0.417 331.30    0.00     0.00    0.00   1   90.00     0    0    0   110 2400.0  1   1    8    0   0.000    0.000    0.000  1
 63   1    1  1 0 0    62  16    79  576  576     0.00000   4.99438 1.28698e-003  1198  2083  -0.36  -0.81  -0.03  -12.92   -0.51   54.99  1.100 -0.550 0 2 0 2  0.417  0.417 331.30    0.00     0.00    0.00   1   90.00     0    0    0   110 2400.0  1   1    8    0   0.000    0.000    0.000  1
 64   1    1  1 0 0    63  16    79  576  576     0.00000   4.99438 1.28698e-003  1204  2092  -0.36  -0.81  -0.03  -12.91   -0.51   54.44  1.100 -0.550 0 2 0 2  0.417  0.417 331.30    0.00     0.00    0.00   1   90.00     0    0    0   110 2400.0  1   1    8    0   0.000    0.000    0.000  1
 65   1    1  1 0 0    64  16    79  576  576     0.00000   4.99438 1.28698e-003  1204  2093  -0.36  -0.81  -0.03  -12.90   -0.52   53.89  1.100 -0.550 0 2 0 2  0.417  0.417 331.30    0.00     0.00    0.00   1   90.00     0    0    0   110 2400.0  1   1    8    0   0.000    0.000    0.000  1
 66   1    1  1 0 0    65  16    79  576  576     0.00000   4.99438 1.28698e-003  1204  2093  -0.36  -0.81  -0.03  -12.89   -0.52   53.34  1.100 -0.550 0 2 0 2  0.417  0.417 331.30    0.00     0.00    0.00   1   90.00     0    0    0   110 2400.0  1   1    8    0   0.000    0.000    0.000  1
 67   1    1  1 0 0    66  16    79  576  576     0.00000   4.99438 1.28698e-003  1208  2099  -0.36  -0.81  -0.03  -12.88   -0.52   52.79  1.100 -0.550 0 2 0 2  0.417  0.417 331.30    0.00     0.00    0.00   1   90.00     0    0    0   110 2400.0  1   1    8    0   0.000    0.000    0.000  1
 68   1    1  1 0 0    67  16    79  576  576     0.00000   4.99438 1.28698e-003  1209  2101  -0.36  -0.81  -0.03  -12.88   -0.53   52.24  1.100 -0.550 0 2 0 2  0.417  0.417 331.30    0.00     0.00    0.00   1   90.00     0    0    0   110 2400.0  1   1    8    0   0.000    0.000    0.000  1
 69   1    1  1 0 0    68  16    79  576  576     0.00000   4.99438 1.28698e-003  1198  2082  -0.36  -0.81  -0.03  -12.87   -0.53   51.69  1.100 -0.550 0 2 0 2  0.417  0.417 331.30    0.00     0.00    0.00   1   90.00     0    0    0   110 2400.0  1   1    8    0   0.000    0.000    0.000  1
 70   1    1  1 0 0    69  16    79  576  576     0.00000   4.99438 1.28698e-003  1190  2069  -0.36  -0.81  -0.03  -12.86   -0.53   51.14  1.100 -0.550 0 2 0 2  0.417  0.417 331.30    0.00     0.00    0.00   1   90.00     0    0    0   110 2400.0  1   1    8    0   0.000    0.000    0.000  1
 71   1    1  1 0 0    70  16    79  576  576     0.00000   4.99438 1.28698e-003  1183  2056  -0.36  -0.81  -0.03  -12.85   -0.54   50.59  1.100 -0.550 0 2 0 2  0.417  0.417 331.30    0.00     0.00    0.00   1   90.00     0    0    0   110 2400.0  1   1    8    0   0.000    0.000    0.000  1
 72   1    1  1 0 0    71  16    79  576  576     0.00000   4.99438 1.28698e-003  1180  2051  -0.36  -0.81  -0.03  -12.85   -0.54   50.04  1.100 -0.550 0 2 0 2  0.417  0.417 331.30    0.00     0.00    0.00   1   90.00     0    0    0   110 2400.0  1   1    8    0   0.000    0.000    0.000  1
 73   1    1  1 0 0    72  16    79  576  576     0.00000   4.99438 1.28698e-003  1189  2067  -0.36  -0.81  -0.03  -12.84   -0.54   49.49  1.100 -0.550 0 2 0 2  0.417  0.417 331.30    0.00     0.00    0.00   1   90.00     0    0    0   110 2400.0  1   1    8    0   0.000    0.000    0.000  1
 74   1    1  1 0 0    73  16    79  576  576     0.00000   4.99438 1.28698e-003  1197  2080  -0.36  -0.81  -0.03  -12.83   -0.55   48.94  1.100 -0.550 0 2 0 2  0.417  0.417 331.30    0.00     0.00    0.00   1   90.00     0    0    0   110 2400.0  1   1    8    0   0.000    0.000    0.000  1
 75   1    1  1 0 0    74  16    79  576  576     0.00000   4.99438 1.28698e-003  1203  2091  -0.36  -0.81  -0.03  -12.82   -0.55   48.39  1.100 -0.550 0 2 0 2  0.417  0.417 331.30    0.00     0.00    0.00   1   90.00     0    0    0   110 2400.0  1   1    8    0   0.000    0.000    0.000  1
 76   1    1  1 0 0    75  16    79  576  576     0.00000   4.99438 1.28698e-003  1227  2133  -0.36  -0.81  -0.03  -12.81   -0.55   47.84  1.100 -0.550 0 2 0 2  0.417  0.417 331.30    0.00     0.00    0.00   1   90.00     0    0    0   110 2400.0  1   1    8    0   0.000    0.000    0.000  1
 77   1    1  1 0 0    76  16    79  576  576     0.00000   4.99438 1.28698e-003  1232  2142  -0.36  -0.81  -0.03  -12.81   -0.56   47.29  1.100 -0.550 0 2 0 2  0.417  0.417 331.30    0.00     0.00    0.00   1   90.00     0    0    0   110 2400.0  1   1    8    0   0.000    0.000    0.000  1
 78   1    1  1 0 0    77  16    79  576  576     0.00000   4.99438 1.28698e-003  1233  2143  -0.36  -0.81  -0.03  -12.80   -0.56   46.74  1.100 -0.550 0 2 0 2  0.417  0.417 331.30    0.00     0.00    0.00   1   90.00     0    0    0   110 2400.0  1   1    8    0   0.000    0.000    0.000  1
 79   1    1  1 0 0    78  16    79  576  576     0.00000   4.99438 1.28698e-003  1236  2149  -0.36  -0.81  -0.03  -12.79   -0.56   46.19  1.100 -0.550 0 2 0 2  0.417  0.417 331.30    0.00     0.00    0.00   1   90.00     0    0    0   110 2400.0  1   1    8    0   0.000    0.000    0.000  1
 80   1    1  1 0 0    79  16    79  576  576     0.00000   4.99438 1.28698e-003  1240  2155  -0.36  -0.81  -0.03  -12.78   -0.57   45.64  1.100 -0.550 0 2 0 2  0.417  0.417 331.30    0.00     0.00    0.00   1   90.00     0    0    0   110 2400.0  1   1    8    0   0.000    0.000    0.000  1
 81   1    1  1 0 0    80  16    79  576  576     0.00000   4.99438 1.28698e-003  1247  2168  -0.36  -0.81  -0.03  -12.78   -0.57   45.09  1.100 -0.550 0 2 0 2  0.417  0.417 331.30    0.00     0.00    0.00   1   90.00     0    0    0   110 2400.0  1   1    8    0   0.000    0.000    0.000  1
 82   1    1  1 0 0    81  16    79  576  576     0.00000   4.99438 1.28698e-003  1254  2179  -0.36  -0.81  -0.03  -12.77   -0.57   44.54  1.100 -0.550 0 2 0 2  0.417  0.417 331.30    0.00     0.00    0.00   1   90.00     0    0    0   110 2400.0  1   1    8    0   0.000    0.000    0.000  1
 83   1    1  1 0 0    82  16    79  576  576     0.00000   4.99438 1.28698e-003  1256  2184  -0.36  -0.81  -0.03  -12.76   -0.58   43.99  1.100 -0.550 0 2 0 2  0.417  0.417 331.30    0.00     0.00    0.00   1   90.00     0    0    0   110 2400.0  1   1    8    0   0.000    0.000    0.000  1
 84   1    1  1 0 0    83  16    79  576  576     0.00000   4.99438 1.28698e-003  1260  2190  -0.36  -0.81  -0.03  -12.75   -0.58   43.44  1.100 -0.550 0 2 0 2  0.417  0.417 331.30    0.00     0.00    0.00   1   90.00     0    0    0   110 2400.0  1   1    8    0   0.000    0.000    0.000  1
