# === DATA DESCRIPTION FILE ======================================================
#
# CAUTION - Investigational device.
# Limited by Federal Law to investigational use.
#
#
# CLINICAL TRYOUT             Research image export tool     V4.2
#
# === GENERAL INFORMATION ========================================================
#
.    Protocol name                      :   WIP 3D FLAIR Sag UMich SENSE
.    Series Type                        :   Image   MRSERIES
.    Acquisition nr                     :   4
.    Reconstruction nr                  :   1
.    Scan Duration [sec]                :   528
.    Max. number of cardiac phases      :   1
.    Max. number of echoes              :   1
.    Max. number of slices/locations    :   327
.    Max. number of dynamics            :   1
.    Max. number of mixes               :   1
.    Patient position                   :   Head First Supine
.    Preparation direction              :   Anterior-Posterior
.    Technique                          :   TIR
.    Scan resolution  (x, y)            :   216  220
.    Scan mode                          :   3D
.    Repetition time [ms]               :   8000.000  
.    FOV (ap,fh,rl) [mm]                :   240.000  200.000  179.850
.    Water Fat shift [pixels]           :   0.858
.    Angulation midslice(ap,fh,rl)[degr]:   -2.441  -4.518  -0.028
.    Off Centre midslice(ap,fh,rl) [mm] :   -10.801  22.939  -0.085
.    Flow compensation <0=no 1=yes> ?   :   1
.    Presaturation     <0=no 1=yes> ?   :   0
.    Phase encoding velocity [cm/sec]   :   0.000000  0.000000  0.000000
.    MTC               <0=no 1=yes> ?   :   0
.    SPIR              <0=no 1=yes> ?   :   1
.    EPI factor        <0,1=no EPI>     :   1
.    Dynamic scan      <0=no 1=yes> ?   :   0
.    Diffusion         <0=no 1=yes> ?   :   0
.    Diffusion echo time [ms]           :   0.0000
.    Max. number of diffusion values    :   1
.    Max. number of gradient orients    :   1
.    Number of label types   <0=no ASL> :   0
#
# === PIXEL VALUES =============================================================
#  PV = pixel value in REC file, FP = floating point value, DV = displayed value on console
#  RS = rescale slope,           RI = rescale intercept,    SS = scale slope
#  DV = PV * RS + RI             FP = DV / (RS * SS)
#
# === IMAGE INFORMATION DEFINITION =============================================
#  The rest of this file contains ONE line per image, this line contains the following information:
#
#  slice number                             (integer)
#  echo number                              (integer)
#  dynamic scan number                      (integer)
#  cardiac phase number                     (integer)
#  image_type_mr                            (integer)
#  scanning sequence                        (integer)
#  index in REC file (in images)            (integer)
#  image pixel size (in bits)               (integer)
#  scan percentage                          (integer)
#  recon resolution (x y)                   (2*integer)
#  rescale intercept                        (float)
#  rescale slope                            (float)
#  scale slope                              (float)
#  window center                            (integer)
#  window width                             (integer)
#  image angulation (ap,fh,rl in degrees )  (3*float)
#  image offcentre (ap,fh,rl in mm )        (3*float)
#  slice thickness (in mm )                 (float)
#  slice gap (in mm )                       (float)
#  image_display_orientation                (integer)
#  slice orientation ( TRA/SAG/COR )        (integer)
#  fmri_status_indication                   (integer)
#  image_type_ed_es  (end diast/end syst)   (integer)
#  pixel spacing (x,y) (in mm)              (2*float)
#  echo_time                                (float)
#  dyn_scan_begin_time                      (float)
#  trigger_time                             (float)
#  diffusion_b_factor                       (float)
#  number of averages                       (integer)
#  image_flip_angle (in degrees)            (float)
#  cardiac frequency   (bpm)                (integer)
#  minimum RR-interval (in ms)              (integer)
#  maximum RR-interval (in ms)              (integer)
#  TURBO factor  <0=no turbo>               (integer)
#  Inversion delay (in ms)                  (float)
#  diffusion b value number    (imagekey!)  (integer)
#  gradient orientation number (imagekey!)  (integer)
#  contrast type                            (string)
#  diffusion anisotropy type                (string)
#  diffusion (ap, fh, rl)                   (3*float)
#  label type (ASL)            (imagekey!)  (integer)
#
# === IMAGE INFORMATION ==========================================================
#  sl ec  dyn ph ty    idx pix scan% rec size                (re)scale              window        angulation              offcentre        thick   gap   info      spacing     echo     dtime   ttime    diff  avg  flip    freq   RR-int  turbo delay b grad cont anis         diffusion       L.ty

  1   1    1  1 0 0     0  16    79  576  576     0.00000   5.63346 1.29067e-003     4     8  -2.44  -4.52  -0.03  -17.86   26.75   89.20  1.100 -0.550 0 2 0 2  0.417  0.417 331.30    0.00     0.00    0.00   1   90.00     0    0    0   110 2400.0  1   1    8    0   0.000    0.000    0.000  1
  2   1    1  1 0 0     1  16    79  576  576     0.00000   5.63346 1.29067e-003     7    12  -2.44  -4.52  -0.03  -17.82   26.73   88.66  1.100 -0.550 0 2 0 2  0.417  0.417 331.30    0.00     0.00    0.00   1   90.00     0    0    0   110 2400.0  1   1    8    0   0.000    0.000    0.000  1
  3   1    1  1 0 0     2  16    79  576  576     0.00000   5.63346 1.29067e-003     7    13  -2.44  -4.52  -0.03  -17.77   26.70   88.11  1.100 -0.550 0 2 0 2  0.417  0.417 331.30    0.00     0.00    0.00   1   90.00     0    0    0   110 2400.0  1   1    8    0   0.000    0.000    0.000  1
  4   1    1  1 0 0     3  16    79  576  576     0.00000   5.63346 1.29067e-003     7    13  -2.44  -4.52  -0.03  -17.73   26.68   87.56  1.100 -0.550 0 2 0 2  0.417  0.417 331.30    0.00     0.00    0.00   1   90.00     0    0    0   110 2400.0  1   1    8    0   0.000    0.000    0.000  1
  5   1    1  1 0 0     4  16    79  576  576     0.00000   5.63346 1.29067e-003     7    12  -2.44  -4.52  -0.03  -17.69   26.66   87.01  1.100 -0.550 0 2 0 2  0.417  0.417 331.30    0.00     0.00    0.00   1   90.00     0    0    0   110 2400.0  1   1    8    0   0.000    0.000    0.000  1
  6   1    1  1 0 0     5  16    79  576  576     0.00000   5.63346 1.29067e-003     8    13  -2.44  -4.52  -0.03  -17.64   26.63   86.47  1.100 -0.550 0 2 0 2  0.417  0.417 331.30    0.00     0.00    0.00   1   90.00     0    0    0   110 2400.0  1   1    8    0   0.000    0.000    0.000  1
  7   1    1  1 0 0     6  16    79  576  576     0.00000   5.63346 1.29067e-003     9    15  -2.44  -4.52  -0.03  -17.60   26.61   85.92  1.100 -0.550 0 2 0 2  0.417  0.417 331.30    0.00     0.00    0.00   1   90.00     0    0    0   110 2400.0  1   1    8    0   0.000    0.000    0.000  1
  8   1    1  1 0 0     7  16    79  576  576     0.00000   5.63346 1.29067e-003    11    19  -2.44  -4.52  -0.03  -17.56   26.59   85.37  1.100 -0.550 0 2 0 2  0.417  0.417 331.30    0.00     0.00    0.00   1   90.00     0    0    0   110 2400.0  1   1    8    0   0.000    0.000    0.000  1
  9   1    1  1 0 0     8  16    79  576  576     0.00000   5.63346 1.29067e-003    13    23  -2.44  -4.52  -0.03  -17.51   26.56   84.82  1.100 -0.550 0 2 0 2  0.417  0.417 331.30    0.00     0.00    0.00   1   90.00     0    0    0   110 2400.0  1   1    8    0   0.000    0.000    0.000  1
 10   1    1  1 0 0     9  16    79  576  576     0.00000   5.63346 1.29067e-003    16    28  -2.44  -4.52  -0.03  -17.47   26.54   84.27  1.100 -0.550 0 2 0 2  0.417  0.417 331.30    0.00     0.00    0.00   1   90.00     0    0    0   110 2400.0  1   1    8    0   0.000    0.000    0.000  1
 11   1    1  1 0 0    10  16    79  576  576     0.00000   5.63346 1.29067e-003    18    31  -2.44  -4.52  -0.03  -17.43   26.52   83.73  1.100 -0.550 0 2 0 2  0.417  0.417 331.30    0.00     0.00    0.00   1   90.00     0    0    0   110 2400.0  1   1    8    0   0.000    0.000    0.000  1
 12   1    1  1 0 0    11  16    79  576  576     0.00000   5.63346 1.29067e-003    21    36  -2.44  -4.52  -0.03  -17.38   26.49   83.18  1.100 -0.550 0 2 0 2  0.417  0.417 331.30    0.00     0.00    0.00   1   90.00     0    0    0   110 2400.0  1   1    8    0   0.000    0.000    0.000  1
 13   1    1  1 0 0    12  16    79  576  576     0.00000   5.63346 1.29067e-003    25    43  -2.44  -4.52  -0.03  -17.34   26.47   82.63  1.100 -0.550 0 2 0 2  0.417  0.417 331.30    0.00     0.00    0.00   1   90.00     0    0    0   110 2400.0  1   1    8    0   0.000    0.000    0.000  1
 14   1    1  1 0 0    13  16    79  576  576     0.00000   5.63346 1.29067e-003    27    47  -2.44  -4.52  -0.03  -17.30   26.45   82.08  1.100 -0.550 0 2 0 2  0.417  0.417 331.30    0.00     0.00    0.00   1   90.00     0    0    0   110 2400.0  1   1    8    0   0.000    0.000    0.000  1
 15   1    1  1 0 0    14  16    79  576  576     0.00000   5.63346 1.29067e-003    29    51  -2.44  -4.52  -0.03  -17.25   26.42   81.54  1.100 -0.550 0 2 0 2  0.417  0.417 331.30    0.00     0.00    0.00   1   90.00     0    0    0   110 2400.0  1   1    8    0   0.000    0.000    0.000  1
 16   1    1  1 0 0    15  16    79  576  576     0.00000   5.63346 1.29067e-003    33    57  -2.44  -4.52  -0.03  -17.21   26.40   80.99  1.100 -0.550 0 2 0 2  0.417  0.417 331.30    0.00     0.00    0.00   1   90.00     0    0    0   110 2400.0  1   1    8    0   0.000    0.000    0.000  1
 17   1    1  1 0 0    16  16    79  576  576     0.00000   5.63346 1.29067e-003    37    65  -2.44  -4.52  -0.03  -17.17   26.38   80.44  1.100 -0.550 0 2 0 2  0.417  0.417 331.30    0.00     0.00    0.00   1   90.00     0    0    0   110 2400.0  1   1    8    0   0.000    0.000    0.000  1
 18   1    1  1 0 0    17  16    79  576  576     0.00000   5.63346 1.29067e-003    45    77  -2.44  -4.52  -0.03  -17.12   26.35   79.89  1.100 -0.550 0 2 0 2  0.417  0.417 331.30    0.00     0.00    0.00   1   90.00     0    0    0   110 2400.0  1   1    8    0   0.000    0.000    0.000  1
 19   1    1  1 0 0    18  16    79  576  576     0.00000   5.63346 1.29067e-003    71   123  -2.44  -4.52  -0.03  -17.08   26.33   79.34  1.100 -0.550 0 2 0 2  0.417  0.417 331.30    0.00     0.00    0.00   1   90.00     0    0    0   110 2400.0  1   1    8    0   0.000    0.000    0.000  1
 20   1    1  1 0 0    19  16    79  576  576     0.00000   5.63346 1.29067e-003   146   253  -2.44  -4.52  -0.03  -17.04   26.31   78.80  1.100 -0.550 0 2 0 2  0.417  0.417 331.30    0.00     0.00    0.00   1   90.00     0    0    0   110 2400.0  1   1    8    0   0.000    0.000    0.000  1
 21   1    1  1 0 0    20  16    79  576  576     0.00000   5.63346 1.29067e-003   205   357  -2.44  -4.52  -0.03  -16.99   26.28   78.25  1.100 -0.550 0 2 0 2  0.417  0.417 331.30    0.00     0.00    0.00   1   90.00     0    0    0   110 2400.0  1   1    8    0   0.000    0.000    0.000  1
 22   1    1  1 0 0    21  16    79  576  576     0.00000   5.63346 1.29067e-003   257   446  -2.44  -4.52  -0.03  -16.95   26.26   77.70  1.100 -0.550 0 2 0 2  0.417  0.417 331.30    0.00     0.00    0.00   1   90.00     0    0    0   110 2400.0  1   1    8    0   0.000    0.000    0.000  1
 23   1    1  1 0 0    22  16    79  576  576     0.00000   5.63346 1.29067e-003   295   513  -2.44  -4.52  -0.03  -16.91   26.24   77.15  1.100 -0.550 0 2 0 2  0.417  0.417 331.30    0.00     0.00    0.00   1   90.00     0    0    0   110 2400.0  1   1    8    0   0.000    0.000    0.000  1
 24   1    1  1 0 0    23  16    79  576  576     0.00000   5.63346 1.29067e-003   296   514  -2.44  -4.52  -0.03  -16.86   26.21   76.61  1.100 -0.550 0 2 0 2  0.417  0.417 331.30    0.00     0.00    0.00   1   90.00     0    0    0   110 2400.0  1   1    8    0   0.000    0.000    0.000  1
 25   1    1  1 0 0    24  16    79  576  576     0.00000   5.63346 1.29067e-003   310   538  -2.44  -4.52  -0.03  -16.82   26.19   76.06  1.100 -0.550 0 2 0 2  0.417  0.417 331.30    0.00     0.00    0.00   1   90.00     0    0    0   110 2400.0  1   1    8    0   0.000    0.000    0.000  1
 26   1    1  1 0 0    25  16    79  576  576     0.00000   5.63346 1.29067e-003   336   585  -2.44  -4.52  -0.03  -16.78   26.17   75.51  1.100 -0.550 0 2 0 2  0.417  0.417 331.30    0.00     0.00    0.00   1   90.00     0    0    0   110 2400.0  1   1    8    0   0.000    0.000    0.000  1
 27   1    1  1 0 0    26  16    79  576  576     0.00000   5.63346 1.29067e-003   367   638  -2.44  -4.52  -0.03  -16.73   26.14   74.96  1.100 -0.550 0 2 0 2  0.417  0.417 331.30    0.00     0.00    0.00   1   90.00     0    0    0   110 2400.0  1   1    8    0   0.000    0.000    0.000  1
 28   1    1  1 0 0    27  16    79  576  576     0.00000   5.63346 1.29067e-003   391   679  -2.44  -4.52  -0.03  -16.69   26.12   74.41  1.100 -0.550 0 2 0 2  0.417  0.417 331.30    0.00     0.00    0.00   1   90.00     0    0    0   110 2400.0  1   1    8    0   0.000    0.000    0.000  1
 29   1    1  1 0 0    28  16    79  576  576     0.00000   5.63346 1.29067e-003   406   706  -2.44  -4.52  -0.03  -16.65   26.10   73.87  1.100 -0.550 0 2 0 2  0.417  0.417 331.30    0.00     0.00    0.00   1   90.00     0    0    0   110 2400.0  1   1    8    0   0.000    0.000    0.000  1
 30   1    1  1 0 0    29  16    79  576  576     0.00000   5.63346 1.29067e-003   477   829  -2.44  -4.52  -0.03  -16.60   26.07   73.32  1.100 -0.550 0 2 0 2  0.417  0.417 331.30    0.00     0.00    0.00   1   90.00     0    0    0   110 2400.0  1   1    8    0   0.000    0.000    0.000  1
 31   1    1  1 0 0    30  16    79  576  576     0.00000   5.63346 1.29067e-003   542   941  -2.44  -4.52  -0.03  -16.56   26.05   72.77  1.100 -0.550 0 2 0 2  0.417  0.417 331.30    0.00     0.00    0.00   1   90.00     0    0    0   110 2400.0  1   1    8    0   0.000    0.000    0.000  1
 32   1    1  1 0 0    31  16    79  576  576     0.00000   5.63346 1.29067e-003   562   977  -2.44  -4.52  -0.03  -16.52   26.02   72.22  1.100 -0.550 0 2 0 2  0.417  0.417 331.30    0.00     0.00    0.00   1   90.00     0    0    0   110 2400.0  1   1    8    0   0.000    0.000    0.000  1
 33   1    1  1 0 0    32  16    79  576  576     0.00000   5.63346 1.29067e-003   572   994  -2.44  -4.52  -0.03  -16.47   26.00   71.68  1.100 -0.550 0 2 0 2  0.417  0.417 331.30    0.00     0.00    0.00   1   90.00     0    0    0   110 2400.0  1   1    8    0   0.000    0.000    0.000  1
 34   1    1  1 0 0    33  16    79  576  576     0.00000   5.63346 1.29067e-003   569   988  -2.44  -4.52  -0.03  -16.43   25.98   71.13  1.100 -0.550 0 2 0 2  0.417  0.417 331.30    0.00     0.00    0.00   1   90.00     0    0    0   110 2400.0  1   1    8    0   0.000    0.000    0.000  1
 35   1    1  1 0 0    34  16    79  576  576     0.00000   5.63346 1.29067e-003   529   920  -2.44  -4.52  -0.03  -16.39   25.95   70.58  1.100 -0.550 0 2 0 2  0.417  0.417 331.30    0.00     0.00    0.00   1   90.00     0    0    0   110 2400.0  1   1    8    0   0.000    0.000    0.000  1
 36   1    1  1 0 0    35  16    79  576  576     0.00000   5.63346 1.29067e-003   514   894  -2.44  -4.52  -0.03  -16.35   25.93   70.03  1.100 -0.550 0 2 0 2  0.417  0.417 331.30    0.00     0.00    0.00   1   90.00     0    0    0   110 2400.0  1   1    8    0   0.000    0.000    0.000  1
 37   1    1  1 0 0    36  16    79  576  576     0.00000   5.63346 1.29067e-003   514   893  -2.44  -4.52  -0.03  -16.30   25.91   69.48  1.100 -0.550 0 2 0 2  0.417  0.417 331.30    0.00     0.00    0.00   1   90.00     0    0    0   110 2400.0  1   1    8    0   0.000    0.000    0.000  1
 38   1    1  1 0 0    37  16    79  576  576     0.00000   5.63346 1.29067e-003   526   914  -2.44  -4.52  -0.03  -16.26   25.88   68.94  1.100 -0.550 0 2 0 2  0.417  0.417 331.30    0.00     0.00    0.00   1   90.00     0    0    0   110 2400.0  1   1    8    0   0.000    0.000    0.000  1
 39   1    1  1 0 0    38  16    79  576  576     0.00000   5.63346 1.29067e-003   556   966  -2.44  -4.52  -0.03  -16.22   25.86   68.39  1.100 -0.550 0 2 0 2  0.417  0.417 331.30    0.00     0.00    0.00   1   90.00     0    0    0   110 2400.0  1   1    8    0   0.000    0.000    0.000  1
 40   1    1  1 0 0    39  16    79  576  576     0.00000   5.63346 1.29067e-003   568   987  -2.44  -4.52  -0.03  -16.17   25.84   67.84  1.100 -0.550 0 2 0 2  0.417  0.417 331.30    0.00     0.00    0.00   1   90.00     0    0    0   110 2400.0  1   1    8    0   0.000    0.000    0.000  1
 41   1    1  1 0 0    40  16    79  576  576     0.00000   5.63346 1.29067e-003   561   975  -2.44  -4.52  -0.03  -16.13   25.81   67.29  1.100 -0.550 0 2 0 2  0.417  0.417 331.30    0.00     0.00    0.00   1   90.00     0    0    0   110 2400.0  1   1    8    0   0.000    0.000    0.000  1
 42   1    1  1 0 0    41  16    79  576  576     0.00000   5.63346 1.29067e-003   577  1003  -2.44  -4.52  -0.03  -16.09   25.79   66.75  1.100 -0.550 0 2 0 2  0.417  0.417 331.30    0.00     0.00    0.00   1   90.00     0    0    0   110 2400.0  1   1    8    0   0.000    0.000    0.000  1
 43   1    1  1 0 0    42  16    79  576  576     0.00000   5.63346 1.29067e-003   591  1027  -2.44  -4.52  -0.03  -16.04   25.77   66.20  1.100 -0.550 0 2 0 2  0.417  0.417 331.30    0.00     0.00    0.00   1   90.00     0    0    0   110 2400.0  1   1    8    0   0.000    0.000    0.000  1
 44   1    1  1 0 0    43  16    79  576  576     0.00000   5.63346 1.29067e-003   599  1041  -2.44  -4.52  -0.03  -16.00   25.74   65.65  1.100 -0.550 0 2 0 2  0.417  0.417 331.30    0.00     0.00    0.00   1   90.00     0    0    0   110 2400.0  1   1    8    0   0.000    0.000    0.000  1
 45   1    1  1 0 0    44  16    79  576  576     0.00000   5.63346 1.29067e-003   618  1074  -2.44  -4.52  -0.03  -15.96   25.72   65.10  1.100 -0.550 0 2 0 2  0.417  0.417 331.30    0.00     0.00    0.00   1   90.00     0    0    0   110 2400.0  1   1    8    0   0.000    0.000    0.000  1
 46   1    1  1 0 0    45  16    79  576  576     0.00000   5.63346 1.29067e-003   663  1152  -2.44  -4.52  -0.03  -15.91   25.70   64.55  1.100 -0.550 0 2 0 2  0.417  0.417 331.30    0.00     0.00    0.00   1   90.00     0    0    0   110 2400.0  1   1    8    0   0.000    0.000    0.000  1
 47   1    1  1 0 0    46  16    79  576  576     0.00000   5.63346 1.29067e-003   741  1288  -2.44  -4.52  -0.03  -15.87   25.67   64.01  1.100 -0.550 0 2 0 2  0.417  0.417 331.30    0.00     0.00    0.00   1   90.00     0    0    0   110 2400.0  1   1    8    0   0.000    0.000    0.000  1
 48   1    1  1 0 0    47  16    79  576  576     0.00000   5.63346 1.29067e-003   829  1442  -2.44  -4.52  -0.03  -15.83   25.65   63.46  1.100 -0.550 0 2 0 2  0.417  0.417 331.30    0.00     0.00    0.00   1   90.00     0    0    0   110 2400.0  1   1    8    0   0.000    0.000    0.000  1
 49   1    1  1 0 0    48  16    79  576  576     0.00000   5.63346 1.29067e-003   893  1552  -2.44  -4.52  -0.03  -15.78   25.63   62.91  1.100 -0.550 0 2 0 2  0.417  0.417 331.30    0.00     0.00    0.00   1   90.00     0    0    0   110 2400.0  1   1    8    0   0.000    0.000    0.000  1
 50   1    1  1 0 0    49  16    79  576  576     0.00000   5.63346 1.29067e-003   930  1617  -2.44  -4.52  -0.03  -15.74   25.60   62.36  1.100 -0.550 0 2 0 2  0.417  0.417 331.30    0.00     0.00    0.00   1   90.00     0    0    0   110 2400.0  1   1    8    0   0.000    0.000    0.000  1
 51   1    1  1 0 0    50  16    79  576  576     0.00000   5.63346 1.29067e-003   958  1666  -2.44  -4.52  -0.03  -15.70   25.58   61.82  1.100 -0.550 0 2 0 2  0.417  0.417 331.30    0.00     0.00    0.00   1   90.00     0    0    0   110 2400.0  1   1    8    0   0.000    0.000    0.000  1
 52   1    1  1 0 0    51  16    79  576  576     0.00000   5.63346 1.29067e-003   986  1714  -2.44  -4.52  -0.03  -15.65   25.56   61.27  1.100 -0.550 0 2 0 2  0.417  0.417 331.30    0.00     0.00    0.00   1   90.00     0    0    0   110 2400.0  1   1    8    0   0.000    0.000    0.000  1
 53   1    1  1 0 0    52  16    79  576  576     0.00000   5.63346 1.29067e-003  1002  1742  -2.44  -4.52  -0.03  -15.61   25.53   60.72  1.100 -0.550 0 2 0 2  0.417  0.417 331.30    0.00     0.00    0.00   1   90.00     0    0    0   110 2400.0  1   1    8    0   0.000    0.000    0.000  1
 54   1    1  1 0 0    53  16    79  576  576     0.00000   5.63346 1.29067e-003  1023  1778  -2.44  -4.52  -0.03  -15.57   25.51   60.17  1.100 -0.550 0 2 0 2  0.417  0.417 331.30    0.00     0.00    0.00   1   90.00     0    0    0   110 2400.0  1   1    8    0   0.000    0.000    0.000  1
 55   1    1  1 0 0    54  16    79  576  576     0.00000   5.63346 1.29067e-003  1047  1820  -2.44  -4.52  -0.03  -15.52   25.49   59.62  1.100 -0.550 0 2 0 2  0.417  0.417 331.30    0.00     0.00    0.00   1   90.00     0    0    0   110 2400.0  1   1    8    0   0.000    0.000    0.000  1
 56   1    1  1 0 0    55  16    79  576  576     0.00000   5.63346 1.29067e-003  1070  1860  -2.44  -4.52  -0.03  -15.48   25.46   59.08  1.100 -0.550 0 2 0 2  0.417  0.417 331.30    0.00     0.00    0.00   1   90.00     0    0    0   110 2400.0  1   1    8    0   0.000    0.000    0.000  1
 57   1    1  1 0 0    56  16    79  576  576     0.00000   5.63346 1.29067e-003  1087  1889  -2.44  -4.52  -0.03  -15.44   25.44   58.53  1.100 -0.550 0 2 0 2  0.417  0.417 331.30    0.00     0.00    0.00   1   90.00     0    0    0   110 2400.0  1   1    8    0   0.000    0.000    0.000  1
 58   1    1  1 0 0    57  16    79  576  576     0.00000   5.63346 1.29067e-003  1102  1916  -2.44  -4.52  -0.03  -15.39   25.42   57.98  1.100 -0.550 0 2 0 2  0.417  0.417 331.30    0.00     0.00    0.00   1   90.00     0    0    0   110 2400.0  1   1    8    0   0.000    0.000    0.000  1
 59   1    1  1 0 0    58  16    79  576  576     0.00000   5.63346 1.29067e-003  1108  1926  -2.44  -4.52  -0.03  -15.35   25.39   57.43  1.100 -0.550 0 2 0 2  0.417  0.417 331.30    0.00     0.00    0.00   1   90.00     0    0    0   110 2400.0  1   1    8    0   0.000    0.000    0.000  1
 60   1    1  1 0 0    59  16    79  576  576     0.00000   5.63346 1.29067e-003  1102  1916  -2.44  -4.52  -0.03  -15.31   25.37   56.88  1.100 -0.550 0 2 0 2  0.417  0.417 331.30    0.00     0.00    0.00   1   90.00     0    0    0   110 2400.0  1   1    8    0   0.000    0.000    0.000  1
 61   1    1  1 0 0    60  16    79  576  576     0.00000   5.63346 1.29067e-003  1110  1930  -2.44  -4.52  -0.03  -15.26   25.35   56.34  1.100 -0.550 0 2 0 2  0.417  0.417 331.30    0.00     0.00    0.00   1   90.00     0    0    0   110 2400.0  1   1    8    0   0.000    0.000    0.000  1
 62   1    1  1 0 0    61  16    79  576  576     0.00000   5.63346 1.29067e-003  1118  1944  -2.44  -4.52  -0.03  -15.22   25.32   55.79  1.100 -0.550 0 2 0 2  0.417  0.417 331.30    0.00     0.00    0.00   1   90.00     0    0    0   110 2400.0  1   1    8    0   0.000    0.000    0.000  1
 63   1    1  1 0 0    62  16    79  576  576     0.00000   5.63346 1.29067e-003  1125  1955  -2.44  -4.52  -0.03  -15.18   25.30   55.24  1.100 -0.550 0 2 0 2  0.417  0.417 331.30    0.00     0.00    0.00   1   90.00     0    0    0   110 2400.0  1   1    8    0   0.000    0.000    0.000  1
 64   1    1  1 0 0    63  16    79  576  576     0.00000   5.63346 1.29067e-003  1130  1965  -2.44  -4.52  -0.03  -15.13   25.28   54.69  1.100 -0.550 0 2 0 2  0.417  0.417 331.30    0.00     0.00    0.00   1   90.00     0    0    0   110 2400.0  1   1    8    0   0.000    0.000    0.000  1
 65   1    1  1 0 0    64  16    79  576  576     0.00000   5.63346 1.29067e-003  1144  1989  -2.44  -4.52  -0.03  -15.09   25.25   54.15  1.100 -0.550 0 2 0 2  0.417  0.417 331.30    0.00     0.00    0.00   1   90.00     0    0    0   110 2400.0  1   1    8    0   0.000    0.000    0.000  1
 66   1    1  1 0 0    65  16    79  576  576     0.00000   5.63346 1.29067e-003  1148  1996  -2.44  -4.52  -0.03  -15.05   25.23   53.60  1.100 -0.550 0 2 0 2  0.417  0.417 331.30    0.00     0.00    0.00   1   90.00     0    0    0   110 2400.0  1   1    8    0   0.000    0.000    0.000  1
 67   1    1  1 0 0    66  16    79  576  576     0.00000   5.63346 1.29067e-003  1157  2012  -2.44  -4.52  -0.03  -15.00   25.21   53.05  1.100 -0.550 0 2 0 2  0.417  0.417 331.30    0.00     0.00    0.00   1   90.00     0    0    0   110 2400.0  1   1    8    0   0.000    0.000    0.000  1
 68   1    1  1 0 0    67  16    79  576  576     0.00000   5.63346 1.29067e-003  1158  2013  -2.44  -4.52  -0.03  -14.96   25.18   52.50  1.100 -0.550 0 2 0 2  0.417  0.417 331.30    0.00     0.00    0.00   1   90.00     0    0    0   110 2400.0  1   1    8    0   0.000    0.000    0.000  1
 69   1    1  1 0 0    68  16    79  576  576     0.00000   5.63346 1.29067e-003  1154  2006  -2.44  -4.52  -0.03  -14.92   25.16   51.95  1.100 -0.550 0 2 0 2  0.417  0.417 331.30    0.00     0.00    0.00   1   90.00     0    0    0   110 2400.0  1   1    8    0   0.000    0.000    0.000  1
 70   1    1  1 0 0    69  16    79  576  576     0.00000   5.63346 1.29067e-003  1156  2010  -2.44  -4.52  -0.03  -14.87   25.14   51.41  1.100 -0.550 0 2 0 2  0.417  0.417 331.30    0.00     0.00    0.00   1   90.00     0    0    0   110 2400.0  1   1    8    0   0.000    0.000    0.000  1
 71   1    1  1 0 0    70  16    79  576  576     0.00000   5.63346 1.29067e-003  1163  2021  -2.44  -4.52  -0.03  -14.83   25.11   50.86  1.100 -0.550 0 2 0 2  0.417  0.417 331.30    0.00     0.00    0.00   1   90.00     0    0    0   110 2400.0  1   1    8    0   0.000    0.000    0.000  1
 72   1    1  1 0 0    71  16    79  576  576     0.00000   5.63346 1.29067e-003  1176  2044  -2.44  -4.52  -0.03  -14.79   25.09   50.31  1.100 -0.550 0 2 0 2  0.417  0.417 331.30    0.00     0.00    0.00   1   90.00     0    0    0   110 2400.0  1   1    8    0   0.000    0.000    0.000  1
 73   1    1  1 0 0    72  16    79  576  576     0.00000   5.63346 1.29067e-003  1191  2070  -2.44  -4.52  -0.03  -14.74   25.07   49.76  1.100 -0.550 0 2 0 2  0.417  0.417 331.30    0.00     0.00    0.00   1   90.00     0    0    0   110 2400.0  1   1    8    0   0.000    0.000    0.000  1
 74   1    1  1 0 0    73  16    79  576  576     0.00000   5.63346 1.29067e-003  1196  2079  -2.44  -4.52  -0.03  -14.70   25.04   49.22  1.100 -0.550 0 2 0 2  0.417  0.417 331.30    0.00     0.00    0.00   1   90.00     0    0    0   110 2400.0  1   1    8    0   0.000    0.000    0.000  1
 75   1    1  1 0 0    74  16    79  576  576     0.00000   5.63346 1.29067e-003  1200  2086  -2.44  -4.52  -0.03  -14.66   25.02   48.67  1.100 -0.550 0 2 0 2  0.417  0.417 331.30    0.00     0.00    0.00   1   90.00     0    0    0   110 2400.0  1   1    8    0   0.000    0.000    0.000  1
 76   1    1  1 0 0    75  16    79  576  576     0.00000   5.63346 1.29067e-003  1211  2105  -2.44  -4.52  -0.03  -14.61   25.00   48.12  1.100 -0.550 0 2 0 2  0.417  0.417 331.30    0.00     0.00    0.00   1   90.00     0    0    0   110 2400.0  1   1    8    0   0.000    0.000    0.000  1
 77   1    1  1 0 0    76  16    79  576  576     0.00000   5.63346 1.29067e-003  1221  2123  -2.44  -4.52  -0.03  -14.57   24.97   47.57  1.100 -0.550 0 2 0 2  0.417  0.417 331.30    0.00     0.00    0.00   1   90.00     0    0    0   110 2400.0  1   1    8    0   0.000    0.000    0.000  1
 78   1    1  1 0 0    77  16    79  576  576     0.00000   5.63346 1.29067e-003  1230  2138  -2.44  -4.52  -0.03  -14.53   24.95   47.02  1.100 -0.550 0 2 0 2  0.417  0.417 331.30    0.00     0.00    0.00   1   90.00     0    0    0   110 2400.0  1   1    8    0   0.000    0.000    0.000  1
 79   1    1  1 0 0    78  16    79  576  576     0.00000   5.63346 1.29067e-003  1235  2146  -2.44  -4.52  -0.03  -14.48   24.93   46.48  1.100 -0.550 0 2 0 2  0.417  0.417 331.30    0.00     0.00    0.00   1   90.00     0    0    0   110 2400.0  1   1    8    0   0.000    0.000    0.000  1
 80   1    1  1 0 0    79  16    79  576  576     0.00000   5.63346 1.29067e-003  1234  2145  -2.44  -4.52  -0.03  -14.44   24.90   45.93  1.100 -0.550 0 2 0 2  0.417  0.417 331.30    0.00     0.00    0.00   1   90.00     0    0    0   110 2400.0  1   1    8    0   0.000    0.000    0.000  1
 81   1    1  1 0 0    80  16    79  576  576     0.00000   5.63346 1.29067e-003  1237  2150  -2.44  -4.52  -0.03  -14.40   24.88   45.38  1.100 -0.550 0 2 0 2  0.417  0.417 331.30    0.00     0.00    0.00   1   90.00     0    0    0   110 2400.0  1   1    8    0   0.000    0.000    0.000  1
 82   1    1  1 0 0    81  16    79  576  576     0.00000   5.63346 1.29067e-003  1236  2148  -2.44  -4.52  -0.03  -14.35   24.86   44.83  1.100 -0.550 0 2 0 2  0.417  0.417 331.30    0.00     0.00    0.00   1   90.00     0    0    0   110 2400.0  1   1    8    0   0.000    0.000    0.000  1
 83   1    1  1 0 0    82  16    79  576  576     0.00000   5.63346 1.29067e-003  1237  2150  -2.44  -4.52  -0.03  -14.31   24.83   44.29  1.100 -0.550 0 2 0 2  0.417  0.417 331.30    0.00     0.00    0.00   1   90.00     0    0    0   110 2400.0  1   1    8    0   0.000    0.000    0.000  1
 84   1    1  1 0 0    83  16    79  576  576     0.00000   5.63346 1.29067e-003  1248  2169  -2.44  -4.52  -0.03  -14.27   24.81   43.74  1.100 -0.550 0 2 0 2  0.417  0.417 331.30    0.00     0.00    0.00   1   90.00     0    0    0   110 2400.0  1   1    8    0   0.000    0.000    0.000  1
