# === DATA DESCRIPTION FILE ======================================================
#
# CAUTION - Investigational device.
# Limited by Federal Law to investigational use.
#
#
# CLINICAL TRYOUT             Research image export tool     V4.2
#
# === GENERAL INFORMATION ========================================================
#
.    Protocol name                      :   WIP MPrageADNIsag SENSE
.    Series Type                        :   Image   MRSERIES
.    Acquisition nr                     :   3
.    Reconstruction nr                  :   1
.    Scan Duration [sec]                :   356
.    Max. number of cardiac phases      :   1
.    Max. number of echoes              :   1
.    Max. number of slices/locations    :   170
.    Max. number of dynamics            :   1
.    Max. number of mixes               :   1
.    Patient position                   :   Head First Supine
.    Preparation direction              :   Anterior-Posterior
.    Technique                          :   T1TFE
.    Scan resolution  (x, y)            :   256  256
.    Scan mode                          :   3D
.    Repetition time [ms]               :   6.833  
.    FOV (ap,fh,rl) [mm]                :   240.000  256.000  204.000
.    Water Fat shift [pixels]           :   1.802
.    Angulation midslice(ap,fh,rl)[degr]:   -3.170  -5.800  -0.644
.    Off Centre midslice(ap,fh,rl) [mm] :   -12.320  12.352  -0.343
.    Flow compensation <0=no 1=yes> ?   :   0
.    Presaturation     <0=no 1=yes> ?   :   0
.    Phase encoding velocity [cm/sec]   :   0.000000  0.000000  0.000000
.    MTC               <0=no 1=yes> ?   :   0
.    SPIR              <0=no 1=yes> ?   :   0
.    EPI factor        <0,1=no EPI>     :   1
.    Dynamic scan      <0=no 1=yes> ?   :   0
.    Diffusion         <0=no 1=yes> ?   :   0
.    Diffusion echo time [ms]           :   0.0000
.    Max. number of diffusion values    :   1
.    Max. number of gradient orients    :   1
.    Number of label types   <0=no ASL> :   0
#
# === PIXEL VALUES =============================================================
#  PV = pixel value in REC file, FP = floating point value, DV = displayed value on console
#  RS = rescale slope,           RI = rescale intercept,    SS = scale slope
#  DV = PV * RS + RI             FP = DV / (RS * SS)
#
# === IMAGE INFORMATION DEFINITION =============================================
#  The rest of this file contains ONE line per image, this line contains the following information:
#
#  slice number                             (integer)
#  echo number                              (integer)
#  dynamic scan number                      (integer)
#  cardiac phase number                     (integer)
#  image_type_mr                            (integer)
#  scanning sequence                        (integer)
#  index in REC file (in images)            (integer)
#  image pixel size (in bits)               (integer)
#  scan percentage                          (integer)
#  recon resolution (x y)                   (2*integer)
#  rescale intercept                        (float)
#  rescale slope                            (float)
#  scale slope                              (float)
#  window center                            (integer)
#  window width                             (integer)
#  image angulation (ap,fh,rl in degrees )  (3*float)
#  image offcentre (ap,fh,rl in mm )        (3*float)
#  slice thickness (in mm )                 (float)
#  slice gap (in mm )                       (float)
#  image_display_orientation                (integer)
#  slice orientation ( TRA/SAG/COR )        (integer)
#  fmri_status_indication                   (integer)
#  image_type_ed_es  (end diast/end syst)   (integer)
#  pixel spacing (x,y) (in mm)              (2*float)
#  echo_time                                (float)
#  dyn_scan_begin_time                      (float)
#  trigger_time                             (float)
#  diffusion_b_factor                       (float)
#  number of averages                       (integer)
#  image_flip_angle (in degrees)            (float)
#  cardiac frequency   (bpm)                (integer)
#  minimum RR-interval (in ms)              (integer)
#  maximum RR-interval (in ms)              (integer)
#  TURBO factor  <0=no turbo>               (integer)
#  Inversion delay (in ms)                  (float)
#  diffusion b value number    (imagekey!)  (integer)
#  gradient orientation number (imagekey!)  (integer)
#  contrast type                            (string)
#  diffusion anisotropy type                (string)
#  diffusion (ap, fh, rl)                   (3*float)
#  label type (ASL)            (imagekey!)  (integer)
#
# === IMAGE INFORMATION ==========================================================
#  sl ec  dyn ph ty    idx pix scan% rec size                (re)scale              window        angulation              offcentre        thick   gap   info      spacing     echo     dtime   ttime    diff  avg  flip    freq   RR-int  turbo delay b grad cont anis         diffusion       L.ty

  1   1    1  1 0 2     0  16   100  256  256     0.00000   6.45543 2.09904e-004    34    58  -3.17  -5.80  -0.64  -22.50   18.05  100.38  1.200  0.000 0 2 0 2  1.000  1.000   3.14    0.00     0.00    0.00   1    8.00     0    0    0   240   0.0  1   1    7    0   0.000    0.000    0.000  1
  2   1    1  1 0 2     1  16   100  256  256     0.00000   6.45543 2.09904e-004    34    59  -3.17  -5.80  -0.64  -22.38   17.98   99.19  1.200  0.000 0 2 0 2  1.000  1.000   3.14    0.00     0.00    0.00   1    8.00     0    0    0   240   0.0  1   1    7    0   0.000    0.000    0.000  1
  3   1    1  1 0 2     2  16   100  256  256     0.00000   6.45543 2.09904e-004    37    65  -3.17  -5.80  -0.64  -22.26   17.91   98.00  1.200  0.000 0 2 0 2  1.000  1.000   3.14    0.00     0.00    0.00   1    8.00     0    0    0   240   0.0  1   1    7    0   0.000    0.000    0.000  1
  4   1    1  1 0 2     3  16   100  256  256     0.00000   6.45543 2.09904e-004    39    68  -3.17  -5.80  -0.64  -22.14   17.84   96.81  1.200  0.000 0 2 0 2  1.000  1.000   3.14    0.00     0.00    0.00   1    8.00     0    0    0   240   0.0  1   1    7    0   0.000    0.000    0.000  1
  5   1    1  1 0 2     4  16   100  256  256     0.00000   6.45543 2.09904e-004    43    74  -3.17  -5.80  -0.64  -22.02   17.78   95.62  1.200  0.000 0 2 0 2  1.000  1.000   3.14    0.00     0.00    0.00   1    8.00     0    0    0   240   0.0  1   1    7    0   0.000    0.000    0.000  1
  6   1    1  1 0 2     5  16   100  256  256     0.00000   6.45543 2.09904e-004    47    82  -3.17  -5.80  -0.64  -21.90   17.71   94.42  1.200  0.000 0 2 0 2  1.000  1.000   3.14    0.00     0.00    0.00   1    8.00     0    0    0   240   0.0  1   1    7    0   0.000    0.000    0.000  1
  7   1    1  1 0 2     6  16   100  256  256     0.00000   6.45543 2.09904e-004    50    87  -3.17  -5.80  -0.64  -21.78   17.64   93.23  1.200  0.000 0 2 0 2  1.000  1.000   3.14    0.00     0.00    0.00   1    8.00     0    0    0   240   0.0  1   1    7    0   0.000    0.000    0.000  1
  8   1    1  1 0 2     7  16   100  256  256     0.00000   6.45543 2.09904e-004    47    81  -3.17  -5.80  -0.64  -21.66   17.57   92.04  1.200  0.000 0 2 0 2  1.000  1.000   3.14    0.00     0.00    0.00   1    8.00     0    0    0   240   0.0  1   1    7    0   0.000    0.000    0.000  1
  9   1    1  1 0 2     8  16   100  256  256     0.00000   6.45543 2.09904e-004    48    84  -3.17  -5.80  -0.64  -21.54   17.51   90.85  1.200  0.000 0 2 0 2  1.000  1.000   3.14    0.00     0.00    0.00   1    8.00     0    0    0   240   0.0  1   1    7    0   0.000    0.000    0.000  1
 10   1    1  1 0 2     9  16   100  256  256     0.00000   6.45543 2.09904e-004    54    94  -3.17  -5.80  -0.64  -21.42   17.44   89.66  1.200  0.000 0 2 0 2  1.000  1.000   3.14    0.00     0.00    0.00   1    8.00     0    0    0   240   0.0  1   1    7    0   0.000    0.000    0.000  1
 11   1    1  1 0 2    10  16   100  256  256     0.00000   6.45543 2.09904e-004    52    90  -3.17  -5.80  -0.64  -21.30   17.37   88.46  1.200  0.000 0 2 0 2  1.000  1.000   3.14    0.00     0.00    0.00   1    8.00     0    0    0   240   0.0  1   1    7    0   0.000    0.000    0.000  1
 12   1    1  1 0 2    11  16   100  256  256     0.00000   6.45543 2.09904e-004    67   117  -3.17  -5.80  -0.64  -21.18   17.30   87.27  1.200  0.000 0 2 0 2  1.000  1.000   3.14    0.00     0.00    0.00   1    8.00     0    0    0   240   0.0  1   1    7    0   0.000    0.000    0.000  1
 13   1    1  1 0 2    12  16   100  256  256     0.00000   6.45543 2.09904e-004    72   125  -3.17  -5.80  -0.64  -21.06   17.24   86.08  1.200  0.000 0 2 0 2  1.000  1.000   3.14    0.00     0.00    0.00   1    8.00     0    0    0   240   0.0  1   1    7    0   0.000    0.000    0.000  1
 14   1    1  1 0 2    13  16   100  256  256     0.00000   6.45543 2.09904e-004    69   120  -3.17  -5.80  -0.64  -20.94   17.17   84.89  1.200  0.000 0 2 0 2  1.000  1.000   3.14    0.00     0.00    0.00   1    8.00     0    0    0   240   0.0  1   1    7    0   0.000    0.000    0.000  1
 15   1    1  1 0 2    14  16   100  256  256     0.00000   6.45543 2.09904e-004    72   125  -3.17  -5.80  -0.64  -20.82   17.10   83.69  1.200  0.000 0 2 0 2  1.000  1.000   3.14    0.00     0.00    0.00   1    8.00     0    0    0   240   0.0  1   1    7    0   0.000    0.000    0.000  1
 16   1    1  1 0 2    15  16   100  256  256     0.00000   6.45543 2.09904e-004    82   143  -3.17  -5.80  -0.64  -20.70   17.03   82.50  1.200  0.000 0 2 0 2  1.000  1.000   3.14    0.00     0.00    0.00   1    8.00     0    0    0   240   0.0  1   1    7    0   0.000    0.000    0.000  1
 17   1    1  1 0 2    16  16   100  256  256     0.00000   6.45543 2.09904e-004    74   129  -3.17  -5.80  -0.64  -20.58   16.97   81.31  1.200  0.000 0 2 0 2  1.000  1.000   3.14    0.00     0.00    0.00   1    8.00     0    0    0   240   0.0  1   1    7    0   0.000    0.000    0.000  1
 18   1    1  1 0 2    17  16   100  256  256     0.00000   6.45543 2.09904e-004   217   377  -3.17  -5.80  -0.64  -20.46   16.90   80.12  1.200  0.000 0 2 0 2  1.000  1.000   3.14    0.00     0.00    0.00   1    8.00     0    0    0   240   0.0  1   1    7    0   0.000    0.000    0.000  1
 19   1    1  1 0 2    18  16   100  256  256     0.00000   6.45543 2.09904e-004   516   897  -3.17  -5.80  -0.64  -20.33   16.83   78.93  1.200  0.000 0 2 0 2  1.000  1.000   3.14    0.00     0.00    0.00   1    8.00     0    0    0   240   0.0  1   1    7    0   0.000    0.000    0.000  1
 20   1    1  1 0 2    19  16   100  256  256     0.00000   6.45543 2.09904e-004   586  1019  -3.17  -5.80  -0.64  -20.21   16.77   77.73  1.200  0.000 0 2 0 2  1.000  1.000   3.14    0.00     0.00    0.00   1    8.00     0    0    0   240   0.0  1   1    7    0   0.000    0.000    0.000  1
 21   1    1  1 0 2    20  16   100  256  256     0.00000   6.45543 2.09904e-004   648  1127  -3.17  -5.80  -0.64  -20.09   16.70   76.54  1.200  0.000 0 2 0 2  1.000  1.000   3.14    0.00     0.00    0.00   1    8.00     0    0    0   240   0.0  1   1    7    0   0.000    0.000    0.000  1
 22   1    1  1 0 2    21  16   100  256  256     0.00000   6.45543 2.09904e-004   651  1132  -3.17  -5.80  -0.64  -19.97   16.63   75.35  1.200  0.000 0 2 0 2  1.000  1.000   3.14    0.00     0.00    0.00   1    8.00     0    0    0   240   0.0  1   1    7    0   0.000    0.000    0.000  1
 23   1    1  1 0 2    22  16   100  256  256     0.00000   6.45543 2.09904e-004   714  1241  -3.17  -5.80  -0.64  -19.85   16.56   74.16  1.200  0.000 0 2 0 2  1.000  1.000   3.14    0.00     0.00    0.00   1    8.00     0    0    0   240   0.0  1   1    7    0   0.000    0.000    0.000  1
 24   1    1  1 0 2    23  16   100  256  256     0.00000   6.45543 2.09904e-004   835  1451  -3.17  -5.80  -0.64  -19.73   16.50   72.97  1.200  0.000 0 2 0 2  1.000  1.000   3.14    0.00     0.00    0.00   1    8.00     0    0    0   240   0.0  1   1    7    0   0.000    0.000    0.000  1
 25   1    1  1 0 2    24  16   100  256  256     0.00000   6.45543 2.09904e-004   890  1548  -3.17  -5.80  -0.64  -19.61   16.43   71.77  1.200  0.000 0 2 0 2  1.000  1.000   3.14    0.00     0.00    0.00   1    8.00     0    0    0   240   0.0  1   1    7    0   0.000    0.000    0.000  1
 26   1    1  1 0 2    25  16   100  256  256     0.00000   6.45543 2.09904e-004  1036  1802  -3.17  -5.80  -0.64  -19.49   16.36   70.58  1.200  0.000 0 2 0 2  1.000  1.000   3.14    0.00     0.00    0.00   1    8.00     0    0    0   240   0.0  1   1    7    0   0.000    0.000    0.000  1
 27   1    1  1 0 2    26  16   100  256  256     0.00000   6.45543 2.09904e-004  1035  1800  -3.17  -5.80  -0.64  -19.37   16.29   69.39  1.200  0.000 0 2 0 2  1.000  1.000   3.14    0.00     0.00    0.00   1    8.00     0    0    0   240   0.0  1   1    7    0   0.000    0.000    0.000  1
 28   1    1  1 0 2    27  16   100  256  256     0.00000   6.45543 2.09904e-004  1106  1923  -3.17  -5.80  -0.64  -19.25   16.23   68.20  1.200  0.000 0 2 0 2  1.000  1.000   3.14    0.00     0.00    0.00   1    8.00     0    0    0   240   0.0  1   1    7    0   0.000    0.000    0.000  1
 29   1    1  1 0 2    28  16   100  256  256     0.00000   6.45543 2.09904e-004  1117  1941  -3.17  -5.80  -0.64  -19.13   16.16   67.01  1.200  0.000 0 2 0 2  1.000  1.000   3.14    0.00     0.00    0.00   1    8.00     0    0    0   240   0.0  1   1    7    0   0.000    0.000    0.000  1
 30   1    1  1 0 2    29  16   100  256  256     0.00000   6.45543 2.09904e-004  1160  2017  -3.17  -5.80  -0.64  -19.01   16.09   65.81  1.200  0.000 0 2 0 2  1.000  1.000   3.14    0.00     0.00    0.00   1    8.00     0    0    0   240   0.0  1   1    7    0   0.000    0.000    0.000  1
 31   1    1  1 0 2    30  16   100  256  256     0.00000   6.45543 2.09904e-004  1167  2028  -3.17  -5.80  -0.64  -18.89   16.02   64.62  1.200  0.000 0 2 0 2  1.000  1.000   3.14    0.00     0.00    0.00   1    8.00     0    0    0   240   0.0  1   1    7    0   0.000    0.000    0.000  1
 32   1    1  1 0 2    31  16   100  256  256     0.00000   6.45543 2.09904e-004  1174  2041  -3.17  -5.80  -0.64  -18.77   15.96   63.43  1.200  0.000 0 2 0 2  1.000  1.000   3.14    0.00     0.00    0.00   1    8.00     0    0    0   240   0.0  1   1    7    0   0.000    0.000    0.000  1
 33   1    1  1 0 2    32  16   100  256  256     0.00000   6.45543 2.09904e-004  1188  2065  -3.17  -5.80  -0.64  -18.65   15.89   62.24  1.200  0.000 0 2 0 2  1.000  1.000   3.14    0.00     0.00    0.00   1    8.00     0    0    0   240   0.0  1   1    7    0   0.000    0.000    0.000  1
 34   1    1  1 0 2    33  16   100  256  256     0.00000   6.45543 2.09904e-004  1211  2106  -3.17  -5.80  -0.64  -18.53   15.82   61.05  1.200  0.000 0 2 0 2  1.000  1.000   3.14    0.00     0.00    0.00   1    8.00     0    0    0   240   0.0  1   1    7    0   0.000    0.000    0.000  1
 35   1    1  1 0 2    34  16   100  256  256     0.00000   6.45543 2.09904e-004  1223  2126  -3.17  -5.80  -0.64  -18.41   15.75   59.85  1.200  0.000 0 2 0 2  1.000  1.000   3.14    0.00     0.00    0.00   1    8.00     0    0    0   240   0.0  1   1    7    0   0.000    0.000    0.000  1
 36   1    1  1 0 2    35  16   100  256  256     0.00000   6.45543 2.09904e-004  1208  2100  -3.17  -5.80  -0.64  -18.29   15.69   58.66  1.200  0.000 0 2 0 2  1.000  1.000   3.14    0.00     0.00    0.00   1    8.00     0    0    0   240   0.0  1   1    7    0   0.000    0.000    0.000  1
 37   1    1  1 0 2    36  16   100  256  256     0.00000   6.45543 2.09904e-004  1183  2057  -3.17  -5.80  -0.64  -18.17   15.62   57.47  1.200  0.000 0 2 0 2  1.000  1.000   3.14    0.00     0.00    0.00   1    8.00     0    0    0   240   0.0  1   1    7    0   0.000    0.000    0.000  1
 38   1    1  1 0 2    37  16   100  256  256     0.00000   6.45543 2.09904e-004  1103  1917  -3.17  -5.80  -0.64  -18.05   15.55   56.28  1.200  0.000 0 2 0 2  1.000  1.000   3.14    0.00     0.00    0.00   1    8.00     0    0    0   240   0.0  1   1    7    0   0.000    0.000    0.000  1
 39   1    1  1 0 2    38  16   100  256  256     0.00000   6.45543 2.09904e-004  1138  1978  -3.17  -5.80  -0.64  -17.92   15.49   55.09  1.200  0.000 0 2 0 2  1.000  1.000   3.14    0.00     0.00    0.00   1    8.00     0    0    0   240   0.0  1   1    7    0   0.000    0.000    0.000  1
 40   1    1  1 0 2    39  16   100  256  256     0.00000   6.45543 2.09904e-004  1115  1938  -3.17  -5.80  -0.64  -17.80   15.42   53.89  1.200  0.000 0 2 0 2  1.000  1.000   3.14    0.00     0.00    0.00   1    8.00     0    0    0   240   0.0  1   1    7    0   0.000    0.000    0.000  1
 41   1    1  1 0 2    40  16   100  256  256     0.00000   6.45543 2.09904e-004  1128  1960  -3.17  -5.80  -0.64  -17.68   15.35   52.70  1.200  0.000 0 2 0 2  1.000  1.000   3.14    0.00     0.00    0.00   1    8.00     0    0    0   240   0.0  1   1    7    0   0.000    0.000    0.000  1
 42   1    1  1 0 2    41  16   100  256  256     0.00000   6.45543 2.09904e-004  1121  1949  -3.17  -5.80  -0.64  -17.56   15.28   51.51  1.200  0.000 0 2 0 2  1.000  1.000   3.14    0.00     0.00    0.00   1    8.00     0    0    0   240   0.0  1   1    7    0   0.000    0.000    0.000  1
 43   1    1  1 0 2    42  16   100  256  256     0.00000   6.45543 2.09904e-004  1141  1983  -3.17  -5.80  -0.64  -17.44   15.22   50.32  1.200  0.000 0 2 0 2  1.000  1.000   3.14    0.00     0.00    0.00   1    8.00     0    0    0   240   0.0  1   1    7    0   0.000    0.000    0.000  1
 44   1    1  1 0 2    43  16   100  256  256     0.00000   6.45543 2.09904e-004  1138  1978  -3.17  -5.80  -0.64  -17.32   15.15   49.13  1.200  0.000 0 2 0 2  1.000  1.000   3.14    0.00     0.00    0.00   1    8.00     0    0    0   240   0.0  1   1    7    0   0.000    0.000    0.000  1
 45   1    1  1 0 2    44  16   100  256  256     0.00000   6.45543 2.09904e-004  1140  1981  -3.17  -5.80  -0.64  -17.20   15.08   47.93  1.200  0.000 0 2 0 2  1.000  1.000   3.14    0.00     0.00    0.00   1    8.00     0    0    0   240   0.0  1   1    7    0   0.000    0.000    0.000  1
 46   1    1  1 0 2    45  16   100  256  256     0.00000   6.45543 2.09904e-004  1118  1943  -3.17  -5.80  -0.64  -17.08   15.01   46.74  1.200  0.000 0 2 0 2  1.000  1.000   3.14    0.00     0.00    0.00   1    8.00     0    0    0   240   0.0  1   1    7    0   0.000    0.000    0.000  1
 47   1    1  1 0 2    46  16   100  256  256     0.00000   6.45543 2.09904e-004  1159  2014  -3.17  -5.80  -0.64  -16.96   14.95   45.55  1.200  0.000 0 2 0 2  1.000  1.000   3.14    0.00     0.00    0.00   1    8.00     0    0    0   240   0.0  1   1    7    0   0.000    0.000    0.000  1
 48   1    1  1 0 2    47  16   100  256  256     0.00000   6.45543 2.09904e-004  1183  2056  -3.17  -5.80  -0.64  -16.84   14.88   44.36  1.200  0.000 0 2 0 2  1.000  1.000   3.14    0.00     0.00    0.00   1    8.00     0    0    0   240   0.0  1   1    7    0   0.000    0.000    0.000  1
 49   1    1  1 0 2    48  16   100  256  256     0.00000   6.45543 2.09904e-004  1217  2116  -3.17  -5.80  -0.64  -16.72   14.81   43.17  1.200  0.000 0 2 0 2  1.000  1.000   3.14    0.00     0.00    0.00   1    8.00     0    0    0   240   0.0  1   1    7    0   0.000    0.000    0.000  1
 50   1    1  1 0 2    49  16   100  256  256     0.00000   6.45543 2.09904e-004  1248  2170  -3.17  -5.80  -0.64  -16.60   14.74   41.97  1.200  0.000 0 2 0 2  1.000  1.000   3.14    0.00     0.00    0.00   1    8.00     0    0    0   240   0.0  1   1    7    0   0.000    0.000    0.000  1
 51   1    1  1 0 2    50  16   100  256  256     0.00000   6.45543 2.09904e-004  1273  2214  -3.17  -5.80  -0.64  -16.48   14.68   40.78  1.200  0.000 0 2 0 2  1.000  1.000   3.14    0.00     0.00    0.00   1    8.00     0    0    0   240   0.0  1   1    7    0   0.000    0.000    0.000  1
 52   1    1  1 0 2    51  16   100  256  256     0.00000   6.45543 2.09904e-004  1346  2339  -3.17  -5.80  -0.64  -16.36   14.61   39.59  1.200  0.000 0 2 0 2  1.000  1.000   3.14    0.00     0.00    0.00   1    8.00     0    0    0   240   0.0  1   1    7    0   0.000    0.000    0.000  1
 53   1    1  1 0 2    52  16   100  256  256     0.00000   6.45543 2.09904e-004  1392  2420  -3.17  -5.80  -0.64  -16.24   14.54   38.40  1.200  0.000 0 2 0 2  1.000  1.000   3.14    0.00     0.00    0.00   1    8.00     0    0    0   240   0.0  1   1    7    0   0.000    0.000    0.000  1
 54   1    1  1 0 2    53  16   100  256  256     0.00000   6.45543 2.09904e-004  1416  2462  -3.17  -5.80  -0.64  -16.12   14.47   37.21  1.200  0.000 0 2 0 2  1.000  1.000   3.14    0.00     0.00    0.00   1    8.00     0    0    0   240   0.0  1   1    7    0   0.000    0.000    0.000  1
 55   1    1  1 0 2    54  16   100  256  256     0.00000   6.45543 2.09904e-004  1412  2454  -3.17  -5.80  -0.64  -16.00   14.41   36.01  1.200  0.000 0 2 0 2  1.000  1.000   3.14    0.00     0.00    0.00   1    8.00     0    0    0   240   0.0  1   1    7    0   0.000    0.000    0.000  1
 56   1    1  1 0 2    55  16   100  256  256     0.00000   6.45543 2.09904e-004  1430  2486  -3.17  -5.80  -0.64  -15.88   14.34   34.82  1.200  0.000 0 2 0 2  1.000  1.000   3.14    0.00     0.00    0.00   1    8.00     0    0    0   240   0.0  1   1    7    0   0.000    0.000    0.000  1
 57   1    1  1 0 2    56  16   100  256  256     0.00000   6.45543 2.09904e-004  1471  2557  -3.17  -5.80  -0.64  -15.76   14.27   33.63  1.200  0.000 0 2 0 2  1.000  1.000   3.14    0.00     0.00    0.00   1    8.00     0    0    0   240   0.0  1   1    7    0   0.000    0.000    0.000  1
 58   1    1  1 0 2    57  16   100  256  256     0.00000   6.45543 2.09904e-004  1440  2502  -3.17  -5.80  -0.64  -15.63   14.20   32.44  1.200  0.000 0 2 0 2  1.000  1.000   3.14    0.00     0.00    0.00   1    8.00     0    0    0   240   0.0  1   1    7    0   0.000    0.000    0.000  1
 59   1    1  1 0 2    58  16   100  256  256     0.00000   6.45543 2.09904e-004  1509  2623  -3.17  -5.80  -0.64  -15.51   14.14   31.25  1.200  0.000 0 2 0 2  1.000  1.000   3.14    0.00     0.00    0.00   1    8.00     0    0    0   240   0.0  1   1    7    0   0.000    0.000    0.000  1
 60   1    1  1 0 2    59  16   100  256  256     0.00000   6.45543 2.09904e-004  1625  2824  -3.17  -5.80  -0.64  -15.39   14.07   30.05  1.200  0.000 0 2 0 2  1.000  1.000   3.14    0.00     0.00    0.00   1    8.00     0    0    0   240   0.0  1   1    7    0   0.000    0.000    0.000  1
 61   1    1  1 0 2    60  16   100  256  256     0.00000   6.45543 2.09904e-004  1649  2866  -3.17  -5.80  -0.64  -15.27   14.00   28.86  1.200  0.000 0 2 0 2  1.000  1.000   3.14    0.00     0.00    0.00   1    8.00     0    0    0   240   0.0  1   1    7    0   0.000    0.000    0.000  1
 62   1    1  1 0 2    61  16   100  256  256     0.00000   6.45543 2.09904e-004  1468  2552  -3.17  -5.80  -0.64  -15.15   13.94   27.67  1.200  0.000 0 2 0 2  1.000  1.000   3.14    0.00     0.00    0.00   1    8.00     0    0    0   240   0.0  1   1    7    0   0.000    0.000    0.000  1
 63   1    1  1 0 2    62  16   100  256  256     0.00000   6.45543 2.09904e-004  1329  2310  -3.17  -5.80  -0.64  -15.03   13.87   26.48  1.200  0.000 0 2 0 2  1.000  1.000   3.14    0.00     0.00    0.00   1    8.00     0    0    0   240   0.0  1   1    7    0   0.000    0.000    0.000  1
 64   1    1  1 0 2    63  16   100  256  256     0.00000   6.45543 2.09904e-004  1273  2213  -3.17  -5.80  -0.64  -14.91   13.80   25.29  1.200  0.000 0 2 0 2  1.000  1.000   3.14    0.00     0.00    0.00   1    8.00     0    0    0   240   0.0  1   1    7    0   0.000    0.000    0.000  1
 65   1    1  1 0 2    64  16   100  256  256     0.00000   6.45543 2.09904e-004  1241  2156  -3.17  -5.80  -0.64  -14.79   13.73   24.09  1.200  0.000 0 2 0 2  1.000  1.000   3.14    0.00     0.00    0.00   1    8.00     0    0    0   240   0.0  1   1    7    0   0.000    0.000    0.000  1
 66   1    1  1 0 2    65  16   100  256  256     0.00000   6.45543 2.09904e-004  1184  2058  -3.17  -5.80  -0.64  -14.67   13.67   22.90  1.200  0.000 0 2 0 2  1.000  1.000   3.14    0.00     0.00    0.00   1    8.00     0    0    0   240   0.0  1   1    7    0   0.000    0.000    0.000  1
 67   1    1  1 0 2    66  16   100  256  256     0.00000   6.45543 2.09904e-004  1202  2089  -3.17  -5.80  -0.64  -14.55   13.60   21.71  1.200  0.000 0 2 0 2  1.000  1.000   3.14    0.00     0.00    0.00   1    8.00     0    0    0   240   0.0  1   1    7    0   0.000    0.000    0.000  1
 68   1    1  1 0 2    67  16   100  256  256     0.00000   6.45543 2.09904e-004  1172  2037  -3.17  -5.80  -0.64  -14.43   13.53   20.52  1.200  0.000 0 2 0 2  1.000  1.000   3.14    0.00     0.00    0.00   1    8.00     0    0    0   240   0.0  1   1    7    0   0.000    0.000    0.000  1
 69   1    1  1 0 2    68  16   100  256  256     0.00000   6.45543 2.09904e-004  1201  2088  -3.17  -5.80  -0.64  -14.31   13.46   19.33  1.200  0.000 0 2 0 2  1.000  1.000   3.14    0.00     0.00    0.00   1    8.00     0    0    0   240   0.0  1   1    7    0   0.000    0.000    0.000  1
 70   1    1  1 0 2    69  16   100  256  256     0.00000   6.45543 2.09904e-004  1239  2153  -3.17  -5.80  -0.64  -14.19   13.40   18.13  1.200  0.000 0 2 0 2  1.000  1.000   3.14    0.00     0.00    0.00   1    8.00     0    0    0   240   0.0  1   1    7    0   0.000    0.000    0.000  1
 71   1    1  1 0 2    70  16   100  256  256     0.00000   6.45543 2.09904e-004  1243  2161  -3.17  -5.80  -0.64  -14.07   13.33   16.94  1.200  0.000 0 2 0 2  1.000  1.000   3.14    0.00     0.00    0.00   1    8.00     0    0    0   240   0.0  1   1    7    0   0.000    0.000    0.000  1
 72   1    1  1 0 2    71  16   100  256  256     0.00000   6.45543 2.09904e-004  1138  1978  -3.17  -5.80  -0.64  -13.95   13.26   15.75  1.200  0.000 0 2 0 2  1.000  1.000   3.14    0.00     0.00    0.00   1    8.00     0    0    0   240   0.0  1   1    7    0   0.000    0.000    0.000  1
 73   1    1  1 0 2    72  16   100  256  256     0.00000   6.45543 2.09904e-004  1098  1910  -3.17  -5.80  -0.64  -13.83   13.19   14.56  1.200  0.000 0 2 0 2  1.000  1.000   3.14    0.00     0.00    0.00   1    8.00     0    0    0   240   0.0  1   1    7    0   0.000    0.000    0.000  1
 74   1    1  1 0 2    73  16   100  256  256     0.00000   6.45543 2.09904e-004  1145  1991  -3.17  -5.80  -0.64  -13.71   13.13   13.37  1.200  0.000 0 2 0 2  1.000  1.000   3.14    0.00     0.00    0.00   1    8.00     0    0    0   240   0.0  1   1    7    0   0.000    0.000    0.000  1
 75   1    1  1 0 2    74  16   100  256  256     0.00000   6.45543 2.09904e-004  1085  1887  -3.17  -5.80  -0.64  -13.59   13.06   12.17  1.200  0.000 0 2 0 2  1.000  1.000   3.14    0.00     0.00    0.00   1    8.00     0    0    0   240   0.0  1   1    7    0   0.000    0.000    0.000  1
 76   1    1  1 0 2    75  16   100  256  256     0.00000   6.45543 2.09904e-004  1059  1842  -3.17  -5.80  -0.64  -13.47   12.99   10.98  1.200  0.000 0 2 0 2  1.000  1.000   3.14    0.00     0.00    0.00   1    8.00     0    0    0   240   0.0  1   1    7    0   0.000    0.000    0.000  1
 77   1    1  1 0 2    76  16   100  256  256     0.00000   6.45543 2.09904e-004  1056  1836  -3.17  -5.80  -0.64  -13.34   12.92    9.79  1.200  0.000 0 2 0 2  1.000  1.000   3.14    0.00     0.00    0.00   1    8.00     0    0    0   240   0.0  1   1    7    0   0.000    0.000    0.000  1
 78   1    1  1 0 2    77  16   100  256  256     0.00000   6.45543 2.09904e-004  1053  1830  -3.17  -5.80  -0.64  -13.22   12.86    8.60  1.200  0.000 0 2 0 2  1.000  1.000   3.14    0.00     0.00    0.00   1    8.00     0    0    0   240   0.0  1   1    7    0   0.000    0.000    0.000  1
 79   1    1  1 0 2    78  16   100  256  256     0.00000   6.45543 2.09904e-004  1055  1833  -3.17  -5.80  -0.64  -13.10   12.79    7.41  1.200  0.000 0 2 0 2  1.000  1.000   3.14    0.00     0.00    0.00   1    8.00     0    0    0   240   0.0  1   1    7    0   0.000    0.000    0.000  1
 80   1    1  1 0 2    79  16   100  256  256     0.00000   6.45543 2.09904e-004  1054  1832  -3.17  -5.80  -0.64  -12.98   12.72    6.21  1.200  0.000 0 2 0 2  1.000  1.000   3.14    0.00     0.00    0.00   1    8.00     0    0    0   240   0.0  1   1    7    0   0.000    0.000    0.000  1
 81   1    1  1 0 2    80  16   100  256  256     0.00000   6.45543 2.09904e-004  1073  1866  -3.17  -5.80  -0.64  -12.86   12.65    5.02  1.200  0.000 0 2 0 2  1.000  1.000   3.14    0.00     0.00    0.00   1    8.00     0    0    0   240   0.0  1   1    7    0   0.000    0.000    0.000  1
 82   1    1  1 0 2    81  16   100  256  256     0.00000   6.45543 2.09904e-004  1070  1861  -3.17  -5.80  -0.64  -12.74   12.59    3.83  1.200  0.000 0 2 0 2  1.000  1.000   3.14    0.00     0.00    0.00   1    8.00     0    0    0   240   0.0  1   1    7    0   0.000    0.000    0.000  1
 83   1    1  1 0 2    82  16   100  256  256     0.00000   6.45543 2.09904e-004  1064  1849  -3.17  -5.80  -0.64  -12.62   12.52    2.64  1.200  0.000 0 2 0 2  1.000  1.000   3.14    0.00     0.00    0.00   1    8.00     0    0    0   240   0.0  1   1    7    0   0.000    0.000    0.000  1
 84   1    1  1 0 2    83  16   100  256  256     0.00000   6.45543 2.09904e-004  1056  1836  -3.17  -5.80  -0.64  -12.50   12.45    1.45  1.200  0.000 0 2 0 2  1.000  1.000   3.14    0.00     0.00    0.00   1    8.00     0    0    0   240   0.0  1   1    7    0   0.000    0.000    0.000  1
