# === DATA DESCRIPTION FILE ======================================================
#
# CAUTION - Investigational device.
# Limited by Federal Law to investigational use.
#
#
# CLINICAL TRYOUT             Research image export tool     V4.2
#
# === GENERAL INFORMATION ========================================================
#
.    Protocol name                      :   WIP T2W_VISTA_2mmiso_fatsat SENSE
.    Series Type                        :   Image   MRSERIES
.    Acquisition nr                     :   14
.    Reconstruction nr                  :   1
.    Scan Duration [sec]                :   108
.    Max. number of cardiac phases      :   1
.    Max. number of echoes              :   1
.    Max. number of slices/locations    :   180
.    Max. number of dynamics            :   1
.    Max. number of mixes               :   1
.    Patient position                   :   Head First Supine
.    Preparation direction              :   Anterior-Posterior
.    Technique                          :   TSE
.    Scan resolution  (x, y)            :   120  118
.    Scan mode                          :   3D
.    Repetition time [ms]               :   2500.000  
.    FOV (ap,fh,rl) [mm]                :   240.000  200.000  180.000
.    Water Fat shift [pixels]           :   1.050
.    Angulation midslice(ap,fh,rl)[degr]:   0.179  3.234  0.002
.    Off Centre midslice(ap,fh,rl) [mm] :   -4.688  11.680  1.297
.    Flow compensation <0=no 1=yes> ?   :   0
.    Presaturation     <0=no 1=yes> ?   :   0
.    Phase encoding velocity [cm/sec]   :   0.000000  0.000000  0.000000
.    MTC               <0=no 1=yes> ?   :   0
.    SPIR              <0=no 1=yes> ?   :   1
.    EPI factor        <0,1=no EPI>     :   1
.    Dynamic scan      <0=no 1=yes> ?   :   0
.    Diffusion         <0=no 1=yes> ?   :   0
.    Diffusion echo time [ms]           :   0.0000
.    Max. number of diffusion values    :   1
.    Max. number of gradient orients    :   1
.    Number of label types   <0=no ASL> :   0
#
# === PIXEL VALUES =============================================================
#  PV = pixel value in REC file, FP = floating point value, DV = displayed value on console
#  RS = rescale slope,           RI = rescale intercept,    SS = scale slope
#  DV = PV * RS + RI             FP = DV / (RS * SS)
#
# === IMAGE INFORMATION DEFINITION =============================================
#  The rest of this file contains ONE line per image, this line contains the following information:
#
#  slice number                             (integer)
#  echo number                              (integer)
#  dynamic scan number                      (integer)
#  cardiac phase number                     (integer)
#  image_type_mr                            (integer)
#  scanning sequence                        (integer)
#  index in REC file (in images)            (integer)
#  image pixel size (in bits)               (integer)
#  scan percentage                          (integer)
#  recon resolution (x y)                   (2*integer)
#  rescale intercept                        (float)
#  rescale slope                            (float)
#  scale slope                              (float)
#  window center                            (integer)
#  window width                             (integer)
#  image angulation (ap,fh,rl in degrees )  (3*float)
#  image offcentre (ap,fh,rl in mm )        (3*float)
#  slice thickness (in mm )                 (float)
#  slice gap (in mm )                       (float)
#  image_display_orientation                (integer)
#  slice orientation ( TRA/SAG/COR )        (integer)
#  fmri_status_indication                   (integer)
#  image_type_ed_es  (end diast/end syst)   (integer)
#  pixel spacing (x,y) (in mm)              (2*float)
#  echo_time                                (float)
#  dyn_scan_begin_time                      (float)
#  trigger_time                             (float)
#  diffusion_b_factor                       (float)
#  number of averages                       (integer)
#  image_flip_angle (in degrees)            (float)
#  cardiac frequency   (bpm)                (integer)
#  minimum RR-interval (in ms)              (integer)
#  maximum RR-interval (in ms)              (integer)
#  TURBO factor  <0=no turbo>               (integer)
#  Inversion delay (in ms)                  (float)
#  diffusion b value number    (imagekey!)  (integer)
#  gradient orientation number (imagekey!)  (integer)
#  contrast type                            (string)
#  diffusion anisotropy type                (string)
#  diffusion (ap, fh, rl)                   (3*float)
#  label type (ASL)            (imagekey!)  (integer)
#
# === IMAGE INFORMATION ==========================================================
#  sl ec  dyn ph ty    idx pix scan% rec size                (re)scale              window        angulation              offcentre        thick   gap   info      spacing     echo     dtime   ttime    diff  avg  flip    freq   RR-int  turbo delay b grad cont anis         diffusion       L.ty

  1   1    1  1 0 1     0  16    77  256  256     0.00000   1.37387 1.33645e-004    32    56   0.18   3.23   0.00    0.36   11.40   90.65  2.000 -1.000 0 2 0 2  0.943  0.943 287.22    0.00     0.00    0.00   2   90.00     0    0    0   100   0.0  1   1    8    0   0.000    0.000    0.000  1
  2   1    1  1 0 1     1  16    77  256  256     0.00000   1.37387 1.33645e-004    47    82   0.18   3.23   0.00    0.31   11.41   89.66  2.000 -1.000 0 2 0 2  0.943  0.943 287.22    0.00     0.00    0.00   2   90.00     0    0    0   100   0.0  1   1    8    0   0.000    0.000    0.000  1
  3   1    1  1 0 1     2  16    77  256  256     0.00000   1.37387 1.33645e-004    49    85   0.18   3.23   0.00    0.25   11.41   88.66  2.000 -1.000 0 2 0 2  0.943  0.943 287.22    0.00     0.00    0.00   2   90.00     0    0    0   100   0.0  1   1    8    0   0.000    0.000    0.000  1
  4   1    1  1 0 1     3  16    77  256  256     0.00000   1.37387 1.33645e-004    52    91   0.18   3.23   0.00    0.19   11.41   87.66  2.000 -1.000 0 2 0 2  0.943  0.943 287.22    0.00     0.00    0.00   2   90.00     0    0    0   100   0.0  1   1    8    0   0.000    0.000    0.000  1
  5   1    1  1 0 1     4  16    77  256  256     0.00000   1.37387 1.33645e-004    53    93   0.18   3.23   0.00    0.14   11.41   86.66  2.000 -1.000 0 2 0 2  0.943  0.943 287.22    0.00     0.00    0.00   2   90.00     0    0    0   100   0.0  1   1    8    0   0.000    0.000    0.000  1
  6   1    1  1 0 1     5  16    77  256  256     0.00000   1.37387 1.33645e-004    52    90   0.18   3.23   0.00    0.08   11.42   85.66  2.000 -1.000 0 2 0 2  0.943  0.943 287.22    0.00     0.00    0.00   2   90.00     0    0    0   100   0.0  1   1    8    0   0.000    0.000    0.000  1
  7   1    1  1 0 1     6  16    77  256  256     0.00000   1.37387 1.33645e-004    52    91   0.18   3.23   0.00    0.02   11.42   84.66  2.000 -1.000 0 2 0 2  0.943  0.943 287.22    0.00     0.00    0.00   2   90.00     0    0    0   100   0.0  1   1    8    0   0.000    0.000    0.000  1
  8   1    1  1 0 1     7  16    77  256  256     0.00000   1.37387 1.33645e-004    51    89   0.18   3.23   0.00   -0.03   11.42   83.67  2.000 -1.000 0 2 0 2  0.943  0.943 287.22    0.00     0.00    0.00   2   90.00     0    0    0   100   0.0  1   1    8    0   0.000    0.000    0.000  1
  9   1    1  1 0 1     8  16    77  256  256     0.00000   1.37387 1.33645e-004    49    86   0.18   3.23   0.00   -0.09   11.43   82.67  2.000 -1.000 0 2 0 2  0.943  0.943 287.22    0.00     0.00    0.00   2   90.00     0    0    0   100   0.0  1   1    8    0   0.000    0.000    0.000  1
 10   1    1  1 0 1     9  16    77  256  256     0.00000   1.37387 1.33645e-004    49    84   0.18   3.23   0.00   -0.15   11.43   81.67  2.000 -1.000 0 2 0 2  0.943  0.943 287.22    0.00     0.00    0.00   2   90.00     0    0    0   100   0.0  1   1    8    0   0.000    0.000    0.000  1
 11   1    1  1 0 1    10  16    77  256  256     0.00000   1.37387 1.33645e-004    48    84   0.18   3.23   0.00   -0.20   11.43   80.67  2.000 -1.000 0 2 0 2  0.943  0.943 287.22    0.00     0.00    0.00   2   90.00     0    0    0   100   0.0  1   1    8    0   0.000    0.000    0.000  1
 12   1    1  1 0 1    11  16    77  256  256     0.00000   1.37387 1.33645e-004    47    82   0.18   3.23   0.00   -0.26   11.44   79.67  2.000 -1.000 0 2 0 2  0.943  0.943 287.22    0.00     0.00    0.00   2   90.00     0    0    0   100   0.0  1   1    8    0   0.000    0.000    0.000  1
 13   1    1  1 0 1    12  16    77  256  256     0.00000   1.37387 1.33645e-004    51    88   0.18   3.23   0.00   -0.32   11.44   78.67  2.000 -1.000 0 2 0 2  0.943  0.943 287.22    0.00     0.00    0.00   2   90.00     0    0    0   100   0.0  1   1    8    0   0.000    0.000    0.000  1
 14   1    1  1 0 1    13  16    77  256  256     0.00000   1.37387 1.33645e-004    53    93   0.18   3.23   0.00   -0.37   11.44   77.68  2.000 -1.000 0 2 0 2  0.943  0.943 287.22    0.00     0.00    0.00   2   90.00     0    0    0   100   0.0  1   1    8    0   0.000    0.000    0.000  1
 15   1    1  1 0 1    14  16    77  256  256     0.00000   1.37387 1.33645e-004    78   136   0.18   3.23   0.00   -0.43   11.45   76.68  2.000 -1.000 0 2 0 2  0.943  0.943 287.22    0.00     0.00    0.00   2   90.00     0    0    0   100   0.0  1   1    8    0   0.000    0.000    0.000  1
 16   1    1  1 0 1    15  16    77  256  256     0.00000   1.37387 1.33645e-004   102   178   0.18   3.23   0.00   -0.48   11.45   75.68  2.000 -1.000 0 2 0 2  0.943  0.943 287.22    0.00     0.00    0.00   2   90.00     0    0    0   100   0.0  1   1    8    0   0.000    0.000    0.000  1
 17   1    1  1 0 1    16  16    77  256  256     0.00000   1.37387 1.33645e-004   119   206   0.18   3.23   0.00   -0.54   11.45   74.68  2.000 -1.000 0 2 0 2  0.943  0.943 287.22    0.00     0.00    0.00   2   90.00     0    0    0   100   0.0  1   1    8    0   0.000    0.000    0.000  1
 18   1    1  1 0 1    17  16    77  256  256     0.00000   1.37387 1.33645e-004   117   203   0.18   3.23   0.00   -0.60   11.45   73.68  2.000 -1.000 0 2 0 2  0.943  0.943 287.22    0.00     0.00    0.00   2   90.00     0    0    0   100   0.0  1   1    8    0   0.000    0.000    0.000  1
 19   1    1  1 0 1    18  16    77  256  256     0.00000   1.37387 1.33645e-004   115   199   0.18   3.23   0.00   -0.65   11.46   72.68  2.000 -1.000 0 2 0 2  0.943  0.943 287.22    0.00     0.00    0.00   2   90.00     0    0    0   100   0.0  1   1    8    0   0.000    0.000    0.000  1
 20   1    1  1 0 1    19  16    77  256  256     0.00000   1.37387 1.33645e-004   118   205   0.18   3.23   0.00   -0.71   11.46   71.68  2.000 -1.000 0 2 0 2  0.943  0.943 287.22    0.00     0.00    0.00   2   90.00     0    0    0   100   0.0  1   1    8    0   0.000    0.000    0.000  1
 21   1    1  1 0 1    20  16    77  256  256     0.00000   1.37387 1.33645e-004   119   206   0.18   3.23   0.00   -0.77   11.46   70.69  2.000 -1.000 0 2 0 2  0.943  0.943 287.22    0.00     0.00    0.00   2   90.00     0    0    0   100   0.0  1   1    8    0   0.000    0.000    0.000  1
 22   1    1  1 0 1    21  16    77  256  256     0.00000   1.37387 1.33645e-004   118   205   0.18   3.23   0.00   -0.82   11.47   69.69  2.000 -1.000 0 2 0 2  0.943  0.943 287.22    0.00     0.00    0.00   2   90.00     0    0    0   100   0.0  1   1    8    0   0.000    0.000    0.000  1
 23   1    1  1 0 1    22  16    77  256  256     0.00000   1.37387 1.33645e-004   125   217   0.18   3.23   0.00   -0.88   11.47   68.69  2.000 -1.000 0 2 0 2  0.943  0.943 287.22    0.00     0.00    0.00   2   90.00     0    0    0   100   0.0  1   1    8    0   0.000    0.000    0.000  1
 24   1    1  1 0 1    23  16    77  256  256     0.00000   1.37387 1.33645e-004   136   237   0.18   3.23   0.00   -0.94   11.47   67.69  2.000 -1.000 0 2 0 2  0.943  0.943 287.22    0.00     0.00    0.00   2   90.00     0    0    0   100   0.0  1   1    8    0   0.000    0.000    0.000  1
 25   1    1  1 0 1    24  16    77  256  256     0.00000   1.37387 1.33645e-004   157   273   0.18   3.23   0.00   -0.99   11.48   66.69  2.000 -1.000 0 2 0 2  0.943  0.943 287.22    0.00     0.00    0.00   2   90.00     0    0    0   100   0.0  1   1    8    0   0.000    0.000    0.000  1
 26   1    1  1 0 1    25  16    77  256  256     0.00000   1.37387 1.33645e-004   159   276   0.18   3.23   0.00   -1.05   11.48   65.69  2.000 -1.000 0 2 0 2  0.943  0.943 287.22    0.00     0.00    0.00   2   90.00     0    0    0   100   0.0  1   1    8    0   0.000    0.000    0.000  1
 27   1    1  1 0 1    26  16    77  256  256     0.00000   1.37387 1.33645e-004   132   230   0.18   3.23   0.00   -1.11   11.48   64.70  2.000 -1.000 0 2 0 2  0.943  0.943 287.22    0.00     0.00    0.00   2   90.00     0    0    0   100   0.0  1   1    8    0   0.000    0.000    0.000  1
 28   1    1  1 0 1    27  16    77  256  256     0.00000   1.37387 1.33645e-004   120   209   0.18   3.23   0.00   -1.16   11.49   63.70  2.000 -1.000 0 2 0 2  0.943  0.943 287.22    0.00     0.00    0.00   2   90.00     0    0    0   100   0.0  1   1    8    0   0.000    0.000    0.000  1
 29   1    1  1 0 1    28  16    77  256  256     0.00000   1.37387 1.33645e-004   177   307   0.18   3.23   0.00   -1.22   11.49   62.70  2.000 -1.000 0 2 0 2  0.943  0.943 287.22    0.00     0.00    0.00   2   90.00     0    0    0   100   0.0  1   1    8    0   0.000    0.000    0.000  1
 30   1    1  1 0 1    29  16    77  256  256     0.00000   1.37387 1.33645e-004   253   440   0.18   3.23   0.00   -1.27   11.49   61.70  2.000 -1.000 0 2 0 2  0.943  0.943 287.22    0.00     0.00    0.00   2   90.00     0    0    0   100   0.0  1   1    8    0   0.000    0.000    0.000  1
 31   1    1  1 0 1    30  16    77  256  256     0.00000   1.37387 1.33645e-004   335   583   0.18   3.23   0.00   -1.33   11.50   60.70  2.000 -1.000 0 2 0 2  0.943  0.943 287.22    0.00     0.00    0.00   2   90.00     0    0    0   100   0.0  1   1    8    0   0.000    0.000    0.000  1
 32   1    1  1 0 1    31  16    77  256  256     0.00000   1.37387 1.33645e-004   344   599   0.18   3.23   0.00   -1.39   11.50   59.70  2.000 -1.000 0 2 0 2  0.943  0.943 287.22    0.00     0.00    0.00   2   90.00     0    0    0   100   0.0  1   1    8    0   0.000    0.000    0.000  1
 33   1    1  1 0 1    32  16    77  256  256     0.00000   1.37387 1.33645e-004   336   584   0.18   3.23   0.00   -1.44   11.50   58.71  2.000 -1.000 0 2 0 2  0.943  0.943 287.22    0.00     0.00    0.00   2   90.00     0    0    0   100   0.0  1   1    8    0   0.000    0.000    0.000  1
 34   1    1  1 0 1    33  16    77  256  256     0.00000   1.37387 1.33645e-004   341   593   0.18   3.23   0.00   -1.50   11.50   57.71  2.000 -1.000 0 2 0 2  0.943  0.943 287.22    0.00     0.00    0.00   2   90.00     0    0    0   100   0.0  1   1    8    0   0.000    0.000    0.000  1
 35   1    1  1 0 1    34  16    77  256  256     0.00000   1.37387 1.33645e-004   357   620   0.18   3.23   0.00   -1.56   11.51   56.71  2.000 -1.000 0 2 0 2  0.943  0.943 287.22    0.00     0.00    0.00   2   90.00     0    0    0   100   0.0  1   1    8    0   0.000    0.000    0.000  1
 36   1    1  1 0 1    35  16    77  256  256     0.00000   1.37387 1.33645e-004   360   626   0.18   3.23   0.00   -1.61   11.51   55.71  2.000 -1.000 0 2 0 2  0.943  0.943 287.22    0.00     0.00    0.00   2   90.00     0    0    0   100   0.0  1   1    8    0   0.000    0.000    0.000  1
 37   1    1  1 0 1    36  16    77  256  256     0.00000   1.37387 1.33645e-004   384   668   0.18   3.23   0.00   -1.67   11.51   54.71  2.000 -1.000 0 2 0 2  0.943  0.943 287.22    0.00     0.00    0.00   2   90.00     0    0    0   100   0.0  1   1    8    0   0.000    0.000    0.000  1
 38   1    1  1 0 1    37  16    77  256  256     0.00000   1.37387 1.33645e-004   409   712   0.18   3.23   0.00   -1.73   11.52   53.71  2.000 -1.000 0 2 0 2  0.943  0.943 287.22    0.00     0.00    0.00   2   90.00     0    0    0   100   0.0  1   1    8    0   0.000    0.000    0.000  1
 39   1    1  1 0 1    38  16    77  256  256     0.00000   1.37387 1.33645e-004   443   771   0.18   3.23   0.00   -1.78   11.52   52.71  2.000 -1.000 0 2 0 2  0.943  0.943 287.22    0.00     0.00    0.00   2   90.00     0    0    0   100   0.0  1   1    8    0   0.000    0.000    0.000  1
 40   1    1  1 0 1    39  16    77  256  256     0.00000   1.37387 1.33645e-004   422   733   0.18   3.23   0.00   -1.84   11.52   51.72  2.000 -1.000 0 2 0 2  0.943  0.943 287.22    0.00     0.00    0.00   2   90.00     0    0    0   100   0.0  1   1    8    0   0.000    0.000    0.000  1
 41   1    1  1 0 1    40  16    77  256  256     0.00000   1.37387 1.33645e-004   426   741   0.18   3.23   0.00   -1.89   11.53   50.72  2.000 -1.000 0 2 0 2  0.943  0.943 287.22    0.00     0.00    0.00   2   90.00     0    0    0   100   0.0  1   1    8    0   0.000    0.000    0.000  1
 42   1    1  1 0 1    41  16    77  256  256     0.00000   1.37387 1.33645e-004   449   781   0.18   3.23   0.00   -1.95   11.53   49.72  2.000 -1.000 0 2 0 2  0.943  0.943 287.22    0.00     0.00    0.00   2   90.00     0    0    0   100   0.0  1   1    8    0   0.000    0.000    0.000  1
 43   1    1  1 0 1    42  16    77  256  256     0.00000   1.37387 1.33645e-004   428   745   0.18   3.23   0.00   -2.01   11.53   48.72  2.000 -1.000 0 2 0 2  0.943  0.943 287.22    0.00     0.00    0.00   2   90.00     0    0    0   100   0.0  1   1    8    0   0.000    0.000    0.000  1
 44   1    1  1 0 1    43  16    77  256  256     0.00000   1.37387 1.33645e-004   411   714   0.18   3.23   0.00   -2.06   11.54   47.72  2.000 -1.000 0 2 0 2  0.943  0.943 287.22    0.00     0.00    0.00   2   90.00     0    0    0   100   0.0  1   1    8    0   0.000    0.000    0.000  1
 45   1    1  1 0 1    44  16    77  256  256     0.00000   1.37387 1.33645e-004   394   685   0.18   3.23   0.00   -2.12   11.54   46.72  2.000 -1.000 0 2 0 2  0.943  0.943 287.22    0.00     0.00    0.00   2   90.00     0    0    0   100   0.0  1   1    8    0   0.000    0.000    0.000  1
 46   1    1  1 0 1    45  16    77  256  256     0.00000   1.37387 1.33645e-004   423   735   0.18   3.23   0.00   -2.18   11.54   45.73  2.000 -1.000 0 2 0 2  0.943  0.943 287.22    0.00     0.00    0.00   2   90.00     0    0    0   100   0.0  1   1    8    0   0.000    0.000    0.000  1
 47   1    1  1 0 1    46  16    77  256  256     0.00000   1.37387 1.33645e-004   504   876   0.18   3.23   0.00   -2.23   11.55   44.73  2.000 -1.000 0 2 0 2  0.943  0.943 287.22    0.00     0.00    0.00   2   90.00     0    0    0   100   0.0  1   1    8    0   0.000    0.000    0.000  1
 48   1    1  1 0 1    47  16    77  256  256     0.00000   1.37387 1.33645e-004   550   956   0.18   3.23   0.00   -2.29   11.55   43.73  2.000 -1.000 0 2 0 2  0.943  0.943 287.22    0.00     0.00    0.00   2   90.00     0    0    0   100   0.0  1   1    8    0   0.000    0.000    0.000  1
 49   1    1  1 0 1    48  16    77  256  256     0.00000   1.37387 1.33645e-004   582  1011   0.18   3.23   0.00   -2.35   11.55   42.73  2.000 -1.000 0 2 0 2  0.943  0.943 287.22    0.00     0.00    0.00   2   90.00     0    0    0   100   0.0  1   1    8    0   0.000    0.000    0.000  1
 50   1    1  1 0 1    49  16    77  256  256     0.00000   1.37387 1.33645e-004   592  1030   0.18   3.23   0.00   -2.40   11.55   41.73  2.000 -1.000 0 2 0 2  0.943  0.943 287.22    0.00     0.00    0.00   2   90.00     0    0    0   100   0.0  1   1    8    0   0.000    0.000    0.000  1
 51   1    1  1 0 1    50  16    77  256  256     0.00000   1.37387 1.33645e-004   560   973   0.18   3.23   0.00   -2.46   11.56   40.73  2.000 -1.000 0 2 0 2  0.943  0.943 287.22    0.00     0.00    0.00   2   90.00     0    0    0   100   0.0  1   1    8    0   0.000    0.000    0.000  1
 52   1    1  1 0 1    51  16    77  256  256     0.00000   1.37387 1.33645e-004   661  1150   0.18   3.23   0.00   -2.52   11.56   39.74  2.000 -1.000 0 2 0 2  0.943  0.943 287.22    0.00     0.00    0.00   2   90.00     0    0    0   100   0.0  1   1    8    0   0.000    0.000    0.000  1
 53   1    1  1 0 1    52  16    77  256  256     0.00000   1.37387 1.33645e-004   768  1334   0.18   3.23   0.00   -2.57   11.56   38.74  2.000 -1.000 0 2 0 2  0.943  0.943 287.22    0.00     0.00    0.00   2   90.00     0    0    0   100   0.0  1   1    8    0   0.000    0.000    0.000  1
 54   1    1  1 0 1    53  16    77  256  256     0.00000   1.37387 1.33645e-004   778  1352   0.18   3.23   0.00   -2.63   11.57   37.74  2.000 -1.000 0 2 0 2  0.943  0.943 287.22    0.00     0.00    0.00   2   90.00     0    0    0   100   0.0  1   1    8    0   0.000    0.000    0.000  1
 55   1    1  1 0 1    54  16    77  256  256     0.00000   1.37387 1.33645e-004   783  1360   0.18   3.23   0.00   -2.68   11.57   36.74  2.000 -1.000 0 2 0 2  0.943  0.943 287.22    0.00     0.00    0.00   2   90.00     0    0    0   100   0.0  1   1    8    0   0.000    0.000    0.000  1
 56   1    1  1 0 1    55  16    77  256  256     0.00000   1.37387 1.33645e-004   791  1375   0.18   3.23   0.00   -2.74   11.57   35.74  2.000 -1.000 0 2 0 2  0.943  0.943 287.22    0.00     0.00    0.00   2   90.00     0    0    0   100   0.0  1   1    8    0   0.000    0.000    0.000  1
 57   1    1  1 0 1    56  16    77  256  256     0.00000   1.37387 1.33645e-004   792  1376   0.18   3.23   0.00   -2.80   11.58   34.74  2.000 -1.000 0 2 0 2  0.943  0.943 287.22    0.00     0.00    0.00   2   90.00     0    0    0   100   0.0  1   1    8    0   0.000    0.000    0.000  1
 58   1    1  1 0 1    57  16    77  256  256     0.00000   1.37387 1.33645e-004   809  1406   0.18   3.23   0.00   -2.85   11.58   33.75  2.000 -1.000 0 2 0 2  0.943  0.943 287.22    0.00     0.00    0.00   2   90.00     0    0    0   100   0.0  1   1    8    0   0.000    0.000    0.000  1
 59   1    1  1 0 1    58  16    77  256  256     0.00000   1.37387 1.33645e-004   813  1413   0.18   3.23   0.00   -2.91   11.58   32.75  2.000 -1.000 0 2 0 2  0.943  0.943 287.22    0.00     0.00    0.00   2   90.00     0    0    0   100   0.0  1   1    8    0   0.000    0.000    0.000  1
 60   1    1  1 0 1    59  16    77  256  256     0.00000   1.37387 1.33645e-004   814  1416   0.18   3.23   0.00   -2.97   11.59   31.75  2.000 -1.000 0 2 0 2  0.943  0.943 287.22    0.00     0.00    0.00   2   90.00     0    0    0   100   0.0  1   1    8    0   0.000    0.000    0.000  1
 61   1    1  1 0 1    60  16    77  256  256     0.00000   1.37387 1.33645e-004   818  1422   0.18   3.23   0.00   -3.02   11.59   30.75  2.000 -1.000 0 2 0 2  0.943  0.943 287.22    0.00     0.00    0.00   2   90.00     0    0    0   100   0.0  1   1    8    0   0.000    0.000    0.000  1
 62   1    1  1 0 1    61  16    77  256  256     0.00000   1.37387 1.33645e-004   828  1439   0.18   3.23   0.00   -3.08   11.59   29.75  2.000 -1.000 0 2 0 2  0.943  0.943 287.22    0.00     0.00    0.00   2   90.00     0    0    0   100   0.0  1   1    8    0   0.000    0.000    0.000  1
 63   1    1  1 0 1    62  16    77  256  256     0.00000   1.37387 1.33645e-004   830  1443   0.18   3.23   0.00   -3.14   11.59   28.75  2.000 -1.000 0 2 0 2  0.943  0.943 287.22    0.00     0.00    0.00   2   90.00     0    0    0   100   0.0  1   1    8    0   0.000    0.000    0.000  1
 64   1    1  1 0 1    63  16    77  256  256     0.00000   1.37387 1.33645e-004   839  1458   0.18   3.23   0.00   -3.19   11.60   27.75  2.000 -1.000 0 2 0 2  0.943  0.943 287.22    0.00     0.00    0.00   2   90.00     0    0    0   100   0.0  1   1    8    0   0.000    0.000    0.000  1
 65   1    1  1 0 1    64  16    77  256  256     0.00000   1.37387 1.33645e-004   864  1502   0.18   3.23   0.00   -3.25   11.60   26.76  2.000 -1.000 0 2 0 2  0.943  0.943 287.22    0.00     0.00    0.00   2   90.00     0    0    0   100   0.0  1   1    8    0   0.000    0.000    0.000  1
 66   1    1  1 0 1    65  16    77  256  256     0.00000   1.37387 1.33645e-004   890  1546   0.18   3.23   0.00   -3.31   11.60   25.76  2.000 -1.000 0 2 0 2  0.943  0.943 287.22    0.00     0.00    0.00   2   90.00     0    0    0   100   0.0  1   1    8    0   0.000    0.000    0.000  1
 67   1    1  1 0 1    66  16    77  256  256     0.00000   1.37387 1.33645e-004   903  1570   0.18   3.23   0.00   -3.36   11.61   24.76  2.000 -1.000 0 2 0 2  0.943  0.943 287.22    0.00     0.00    0.00   2   90.00     0    0    0   100   0.0  1   1    8    0   0.000    0.000    0.000  1
 68   1    1  1 0 1    67  16    77  256  256     0.00000   1.37387 1.33645e-004   905  1574   0.18   3.23   0.00   -3.42   11.61   23.76  2.000 -1.000 0 2 0 2  0.943  0.943 287.22    0.00     0.00    0.00   2   90.00     0    0    0   100   0.0  1   1    8    0   0.000    0.000    0.000  1
 69   1    1  1 0 1    68  16    77  256  256     0.00000   1.37387 1.33645e-004   906  1576   0.18   3.23   0.00   -3.47   11.61   22.76  2.000 -1.000 0 2 0 2  0.943  0.943 287.22    0.00     0.00    0.00   2   90.00     0    0    0   100   0.0  1   1    8    0   0.000    0.000    0.000  1
 70   1    1  1 0 1    69  16    77  256  256     0.00000   1.37387 1.33645e-004   913  1587   0.18   3.23   0.00   -3.53   11.62   21.76  2.000 -1.000 0 2 0 2  0.943  0.943 287.22    0.00     0.00    0.00   2   90.00     0    0    0   100   0.0  1   1    8    0   0.000    0.000    0.000  1
 71   1    1  1 0 1    70  16    77  256  256     0.00000   1.37387 1.33645e-004   890  1548   0.18   3.23   0.00   -3.59   11.62   20.77  2.000 -1.000 0 2 0 2  0.943  0.943 287.22    0.00     0.00    0.00   2   90.00     0    0    0   100   0.0  1   1    8    0   0.000    0.000    0.000  1
 72   1    1  1 0 1    71  16    77  256  256     0.00000   1.37387 1.33645e-004   956  1662   0.18   3.23   0.00   -3.64   11.62   19.77  2.000 -1.000 0 2 0 2  0.943  0.943 287.22    0.00     0.00    0.00   2   90.00     0    0    0   100   0.0  1   1    8    0   0.000    0.000    0.000  1
 73   1    1  1 0 1    72  16    77  256  256     0.00000   1.37387 1.33645e-004   952  1656   0.18   3.23   0.00   -3.70   11.63   18.77  2.000 -1.000 0 2 0 2  0.943  0.943 287.22    0.00     0.00    0.00   2   90.00     0    0    0   100   0.0  1   1    8    0   0.000    0.000    0.000  1
 74   1    1  1 0 1    73  16    77  256  256     0.00000   1.37387 1.33645e-004   906  1576   0.18   3.23   0.00   -3.76   11.63   17.77  2.000 -1.000 0 2 0 2  0.943  0.943 287.22    0.00     0.00    0.00   2   90.00     0    0    0   100   0.0  1   1    8    0   0.000    0.000    0.000  1
 75   1    1  1 0 1    74  16    77  256  256     0.00000   1.37387 1.33645e-004   855  1486   0.18   3.23   0.00   -3.81   11.63   16.77  2.000 -1.000 0 2 0 2  0.943  0.943 287.22    0.00     0.00    0.00   2   90.00     0    0    0   100   0.0  1   1    8    0   0.000    0.000    0.000  1
 76   1    1  1 0 1    75  16    77  256  256     0.00000   1.37387 1.33645e-004   899  1562   0.18   3.23   0.00   -3.87   11.64   15.77  2.000 -1.000 0 2 0 2  0.943  0.943 287.22    0.00     0.00    0.00   2   90.00     0    0    0   100   0.0  1   1    8    0   0.000    0.000    0.000  1
 77   1    1  1 0 1    76  16    77  256  256     0.00000   1.37387 1.33645e-004   901  1566   0.18   3.23   0.00   -3.93   11.64   14.78  2.000 -1.000 0 2 0 2  0.943  0.943 287.22    0.00     0.00    0.00   2   90.00     0    0    0   100   0.0  1   1    8    0   0.000    0.000    0.000  1
 78   1    1  1 0 1    77  16    77  256  256     0.00000   1.37387 1.33645e-004   872  1517   0.18   3.23   0.00   -3.98   11.64   13.78  2.000 -1.000 0 2 0 2  0.943  0.943 287.22    0.00     0.00    0.00   2   90.00     0    0    0   100   0.0  1   1    8    0   0.000    0.000    0.000  1
 79   1    1  1 0 1    78  16    77  256  256     0.00000   1.37387 1.33645e-004   810  1408   0.18   3.23   0.00   -4.04   11.64   12.78  2.000 -1.000 0 2 0 2  0.943  0.943 287.22    0.00     0.00    0.00   2   90.00     0    0    0   100   0.0  1   1    8    0   0.000    0.000    0.000  1
 80   1    1  1 0 1    79  16    77  256  256     0.00000   1.37387 1.33645e-004   864  1502   0.18   3.23   0.00   -4.10   11.65   11.78  2.000 -1.000 0 2 0 2  0.943  0.943 287.22    0.00     0.00    0.00   2   90.00     0    0    0   100   0.0  1   1    8    0   0.000    0.000    0.000  1
 81   1    1  1 0 1    80  16    77  256  256     0.00000   1.37387 1.33645e-004   882  1533   0.18   3.23   0.00   -4.15   11.65   10.78  2.000 -1.000 0 2 0 2  0.943  0.943 287.22    0.00     0.00    0.00   2   90.00     0    0    0   100   0.0  1   1    8    0   0.000    0.000    0.000  1
 82   1    1  1 0 1    81  16    77  256  256     0.00000   1.37387 1.33645e-004   907  1576   0.18   3.23   0.00   -4.21   11.65    9.78  2.000 -1.000 0 2 0 2  0.943  0.943 287.22    0.00     0.00    0.00   2   90.00     0    0    0   100   0.0  1   1    8    0   0.000    0.000    0.000  1
 83   1    1  1 0 1    82  16    77  256  256     0.00000   1.37387 1.33645e-004   941  1635   0.18   3.23   0.00   -4.26   11.66    8.79  2.000 -1.000 0 2 0 2  0.943  0.943 287.22    0.00     0.00    0.00   2   90.00     0    0    0   100   0.0  1   1    8    0   0.000    0.000    0.000  1
 84   1    1  1 0 1    83  16    77  256  256     0.00000   1.37387 1.33645e-004  1032  1793   0.18   3.23   0.00   -4.32   11.66    7.79  2.000 -1.000 0 2 0 2  0.943  0.943 287.22    0.00     0.00    0.00   2   90.00     0    0    0   100   0.0  1   1    8    0   0.000    0.000    0.000  1
