# === DATA DESCRIPTION FILE ======================================================
#
# CAUTION - Investigational device.
# Limited by Federal Law to investigational use.
#
#
# CLINICAL TRYOUT             Research image export tool     V4.2
#
# === GENERAL INFORMATION ========================================================
#
.    Protocol name                      :   WIP 3D FLAIR Sag UMich SENSE
.    Series Type                        :   Image   MRSERIES
.    Acquisition nr                     :   4
.    Reconstruction nr                  :   1
.    Scan Duration [sec]                :   528
.    Max. number of cardiac phases      :   1
.    Max. number of echoes              :   1
.    Max. number of slices/locations    :   327
.    Max. number of dynamics            :   1
.    Max. number of mixes               :   1
.    Patient position                   :   Head First Supine
.    Preparation direction              :   Anterior-Posterior
.    Technique                          :   TIR
.    Scan resolution  (x, y)            :   216  220
.    Scan mode                          :   3D
.    Repetition time [ms]               :   8000.000  
.    FOV (ap,fh,rl) [mm]                :   240.000  200.000  179.850
.    Water Fat shift [pixels]           :   0.813
.    Angulation midslice(ap,fh,rl)[degr]:   -5.306  -9.889  0.126
.    Off Centre midslice(ap,fh,rl) [mm] :   -10.633  10.186  -8.638
.    Flow compensation <0=no 1=yes> ?   :   1
.    Presaturation     <0=no 1=yes> ?   :   0
.    Phase encoding velocity [cm/sec]   :   0.000000  0.000000  0.000000
.    MTC               <0=no 1=yes> ?   :   0
.    SPIR              <0=no 1=yes> ?   :   1
.    EPI factor        <0,1=no EPI>     :   1
.    Dynamic scan      <0=no 1=yes> ?   :   0
.    Diffusion         <0=no 1=yes> ?   :   0
.    Diffusion echo time [ms]           :   0.0000
.    Max. number of diffusion values    :   1
.    Max. number of gradient orients    :   1
.    Number of label types   <0=no ASL> :   0
#
# === PIXEL VALUES =============================================================
#  PV = pixel value in REC file, FP = floating point value, DV = displayed value on console
#  RS = rescale slope,           RI = rescale intercept,    SS = scale slope
#  DV = PV * RS + RI             FP = DV / (RS * SS)
#
# === IMAGE INFORMATION DEFINITION =============================================
#  The rest of this file contains ONE line per image, this line contains the following information:
#
#  slice number                             (integer)
#  echo number                              (integer)
#  dynamic scan number                      (integer)
#  cardiac phase number                     (integer)
#  image_type_mr                            (integer)
#  scanning sequence                        (integer)
#  index in REC file (in images)            (integer)
#  image pixel size (in bits)               (integer)
#  scan percentage                          (integer)
#  recon resolution (x y)                   (2*integer)
#  rescale intercept                        (float)
#  rescale slope                            (float)
#  scale slope                              (float)
#  window center                            (integer)
#  window width                             (integer)
#  image angulation (ap,fh,rl in degrees )  (3*float)
#  image offcentre (ap,fh,rl in mm )        (3*float)
#  slice thickness (in mm )                 (float)
#  slice gap (in mm )                       (float)
#  image_display_orientation                (integer)
#  slice orientation ( TRA/SAG/COR )        (integer)
#  fmri_status_indication                   (integer)
#  image_type_ed_es  (end diast/end syst)   (integer)
#  pixel spacing (x,y) (in mm)              (2*float)
#  echo_time                                (float)
#  dyn_scan_begin_time                      (float)
#  trigger_time                             (float)
#  diffusion_b_factor                       (float)
#  number of averages                       (integer)
#  image_flip_angle (in degrees)            (float)
#  cardiac frequency   (bpm)                (integer)
#  minimum RR-interval (in ms)              (integer)
#  maximum RR-interval (in ms)              (integer)
#  TURBO factor  <0=no turbo>               (integer)
#  Inversion delay (in ms)                  (float)
#  diffusion b value number    (imagekey!)  (integer)
#  gradient orientation number (imagekey!)  (integer)
#  contrast type                            (string)
#  diffusion anisotropy type                (string)
#  diffusion (ap, fh, rl)                   (3*float)
#  label type (ASL)            (imagekey!)  (integer)
#
# === IMAGE INFORMATION ==========================================================
#  sl ec  dyn ph ty    idx pix scan% rec size                (re)scale              window        angulation              offcentre        thick   gap   info      spacing     echo     dtime   ttime    diff  avg  flip    freq   RR-int  turbo delay b grad cont anis         diffusion       L.ty

  1   1    1  1 0 0     0  16    79  576  576     0.00000   7.30794 1.09545e-003     5     9  -5.31  -9.89   0.13  -26.05   18.32   79.30  1.100 -0.550 0 2 0 2  0.417  0.417 331.69    0.00     0.00    0.00   1   90.00     0    0    0   110 2400.0  1   1    8    0   0.000    0.000    0.000  1
  2   1    1  1 0 0     1  16    79  576  576     0.00000   7.30794 1.09545e-003     8    14  -5.31  -9.89   0.13  -25.95   18.27   78.76  1.100 -0.550 0 2 0 2  0.417  0.417 331.69    0.00     0.00    0.00   1   90.00     0    0    0   110 2400.0  1   1    8    0   0.000    0.000    0.000  1
  3   1    1  1 0 0     2  16    79  576  576     0.00000   7.30794 1.09545e-003    10    17  -5.31  -9.89   0.13  -25.86   18.22   78.22  1.100 -0.550 0 2 0 2  0.417  0.417 331.69    0.00     0.00    0.00   1   90.00     0    0    0   110 2400.0  1   1    8    0   0.000    0.000    0.000  1
  4   1    1  1 0 0     3  16    79  576  576     0.00000   7.30794 1.09545e-003    11    19  -5.31  -9.89   0.13  -25.76   18.17   77.68  1.100 -0.550 0 2 0 2  0.417  0.417 331.69    0.00     0.00    0.00   1   90.00     0    0    0   110 2400.0  1   1    8    0   0.000    0.000    0.000  1
  5   1    1  1 0 0     4  16    79  576  576     0.00000   7.30794 1.09545e-003    11    19  -5.31  -9.89   0.13  -25.67   18.12   77.14  1.100 -0.550 0 2 0 2  0.417  0.417 331.69    0.00     0.00    0.00   1   90.00     0    0    0   110 2400.0  1   1    8    0   0.000    0.000    0.000  1
  6   1    1  1 0 0     5  16    79  576  576     0.00000   7.30794 1.09545e-003    11    20  -5.31  -9.89   0.13  -25.57   18.07   76.60  1.100 -0.550 0 2 0 2  0.417  0.417 331.69    0.00     0.00    0.00   1   90.00     0    0    0   110 2400.0  1   1    8    0   0.000    0.000    0.000  1
  7   1    1  1 0 0     6  16    79  576  576     0.00000   7.30794 1.09545e-003    12    21  -5.31  -9.89   0.13  -25.48   18.02   76.06  1.100 -0.550 0 2 0 2  0.417  0.417 331.69    0.00     0.00    0.00   1   90.00     0    0    0   110 2400.0  1   1    8    0   0.000    0.000    0.000  1
  8   1    1  1 0 0     7  16    79  576  576     0.00000   7.30794 1.09545e-003    12    21  -5.31  -9.89   0.13  -25.38   17.97   75.53  1.100 -0.550 0 2 0 2  0.417  0.417 331.69    0.00     0.00    0.00   1   90.00     0    0    0   110 2400.0  1   1    8    0   0.000    0.000    0.000  1
  9   1    1  1 0 0     8  16    79  576  576     0.00000   7.30794 1.09545e-003    12    21  -5.31  -9.89   0.13  -25.29   17.92   74.99  1.100 -0.550 0 2 0 2  0.417  0.417 331.69    0.00     0.00    0.00   1   90.00     0    0    0   110 2400.0  1   1    8    0   0.000    0.000    0.000  1
 10   1    1  1 0 0     9  16    79  576  576     0.00000   7.30794 1.09545e-003    12    21  -5.31  -9.89   0.13  -25.20   17.87   74.45  1.100 -0.550 0 2 0 2  0.417  0.417 331.69    0.00     0.00    0.00   1   90.00     0    0    0   110 2400.0  1   1    8    0   0.000    0.000    0.000  1
 11   1    1  1 0 0    10  16    79  576  576     0.00000   7.30794 1.09545e-003    12    21  -5.31  -9.89   0.13  -25.10   17.82   73.91  1.100 -0.550 0 2 0 2  0.417  0.417 331.69    0.00     0.00    0.00   1   90.00     0    0    0   110 2400.0  1   1    8    0   0.000    0.000    0.000  1
 12   1    1  1 0 0    11  16    79  576  576     0.00000   7.30794 1.09545e-003    12    21  -5.31  -9.89   0.13  -25.01   17.77   73.37  1.100 -0.550 0 2 0 2  0.417  0.417 331.69    0.00     0.00    0.00   1   90.00     0    0    0   110 2400.0  1   1    8    0   0.000    0.000    0.000  1
 13   1    1  1 0 0    12  16    79  576  576     0.00000   7.30794 1.09545e-003    12    22  -5.31  -9.89   0.13  -24.91   17.72   72.83  1.100 -0.550 0 2 0 2  0.417  0.417 331.69    0.00     0.00    0.00   1   90.00     0    0    0   110 2400.0  1   1    8    0   0.000    0.000    0.000  1
 14   1    1  1 0 0    13  16    79  576  576     0.00000   7.30794 1.09545e-003    13    22  -5.31  -9.89   0.13  -24.82   17.67   72.29  1.100 -0.550 0 2 0 2  0.417  0.417 331.69    0.00     0.00    0.00   1   90.00     0    0    0   110 2400.0  1   1    8    0   0.000    0.000    0.000  1
 15   1    1  1 0 0    14  16    79  576  576     0.00000   7.30794 1.09545e-003    12    21  -5.31  -9.89   0.13  -24.72   17.62   71.75  1.100 -0.550 0 2 0 2  0.417  0.417 331.69    0.00     0.00    0.00   1   90.00     0    0    0   110 2400.0  1   1    8    0   0.000    0.000    0.000  1
 16   1    1  1 0 0    15  16    79  576  576     0.00000   7.30794 1.09545e-003    12    21  -5.31  -9.89   0.13  -24.63   17.57   71.21  1.100 -0.550 0 2 0 2  0.417  0.417 331.69    0.00     0.00    0.00   1   90.00     0    0    0   110 2400.0  1   1    8    0   0.000    0.000    0.000  1
 17   1    1  1 0 0    16  16    79  576  576     0.00000   7.30794 1.09545e-003    12    20  -5.31  -9.89   0.13  -24.53   17.52   70.67  1.100 -0.550 0 2 0 2  0.417  0.417 331.69    0.00     0.00    0.00   1   90.00     0    0    0   110 2400.0  1   1    8    0   0.000    0.000    0.000  1
 18   1    1  1 0 0    17  16    79  576  576     0.00000   7.30794 1.09545e-003    11    20  -5.31  -9.89   0.13  -24.44   17.47   70.13  1.100 -0.550 0 2 0 2  0.417  0.417 331.69    0.00     0.00    0.00   1   90.00     0    0    0   110 2400.0  1   1    8    0   0.000    0.000    0.000  1
 19   1    1  1 0 0    18  16    79  576  576     0.00000   7.30794 1.09545e-003    12    21  -5.31  -9.89   0.13  -24.34   17.42   69.59  1.100 -0.550 0 2 0 2  0.417  0.417 331.69    0.00     0.00    0.00   1   90.00     0    0    0   110 2400.0  1   1    8    0   0.000    0.000    0.000  1
 20   1    1  1 0 0    19  16    79  576  576     0.00000   7.30794 1.09545e-003    13    23  -5.31  -9.89   0.13  -24.25   17.37   69.05  1.100 -0.550 0 2 0 2  0.417  0.417 331.69    0.00     0.00    0.00   1   90.00     0    0    0   110 2400.0  1   1    8    0   0.000    0.000    0.000  1
 21   1    1  1 0 0    20  16    79  576  576     0.00000   7.30794 1.09545e-003    17    30  -5.31  -9.89   0.13  -24.16   17.32   68.51  1.100 -0.550 0 2 0 2  0.417  0.417 331.69    0.00     0.00    0.00   1   90.00     0    0    0   110 2400.0  1   1    8    0   0.000    0.000    0.000  1
 22   1    1  1 0 0    21  16    79  576  576     0.00000   7.30794 1.09545e-003    23    40  -5.31  -9.89   0.13  -24.06   17.27   67.97  1.100 -0.550 0 2 0 2  0.417  0.417 331.69    0.00     0.00    0.00   1   90.00     0    0    0   110 2400.0  1   1    8    0   0.000    0.000    0.000  1
 23   1    1  1 0 0    22  16    79  576  576     0.00000   7.30794 1.09545e-003    27    46  -5.31  -9.89   0.13  -23.97   17.22   67.43  1.100 -0.550 0 2 0 2  0.417  0.417 331.69    0.00     0.00    0.00   1   90.00     0    0    0   110 2400.0  1   1    8    0   0.000    0.000    0.000  1
 24   1    1  1 0 0    23  16    79  576  576     0.00000   7.30794 1.09545e-003    29    51  -5.31  -9.89   0.13  -23.87   17.17   66.89  1.100 -0.550 0 2 0 2  0.417  0.417 331.69    0.00     0.00    0.00   1   90.00     0    0    0   110 2400.0  1   1    8    0   0.000    0.000    0.000  1
 25   1    1  1 0 0    24  16    79  576  576     0.00000   7.30794 1.09545e-003    31    54  -5.31  -9.89   0.13  -23.78   17.12   66.35  1.100 -0.550 0 2 0 2  0.417  0.417 331.69    0.00     0.00    0.00   1   90.00     0    0    0   110 2400.0  1   1    8    0   0.000    0.000    0.000  1
 26   1    1  1 0 0    25  16    79  576  576     0.00000   7.30794 1.09545e-003    35    61  -5.31  -9.89   0.13  -23.68   17.07   65.81  1.100 -0.550 0 2 0 2  0.417  0.417 331.69    0.00     0.00    0.00   1   90.00     0    0    0   110 2400.0  1   1    8    0   0.000    0.000    0.000  1
 27   1    1  1 0 0    26  16    79  576  576     0.00000   7.30794 1.09545e-003    39    68  -5.31  -9.89   0.13  -23.59   17.02   65.27  1.100 -0.550 0 2 0 2  0.417  0.417 331.69    0.00     0.00    0.00   1   90.00     0    0    0   110 2400.0  1   1    8    0   0.000    0.000    0.000  1
 28   1    1  1 0 0    27  16    79  576  576     0.00000   7.30794 1.09545e-003    41    71  -5.31  -9.89   0.13  -23.49   16.97   64.73  1.100 -0.550 0 2 0 2  0.417  0.417 331.69    0.00     0.00    0.00   1   90.00     0    0    0   110 2400.0  1   1    8    0   0.000    0.000    0.000  1
 29   1    1  1 0 0    28  16    79  576  576     0.00000   7.30794 1.09545e-003    44    77  -5.31  -9.89   0.13  -23.40   16.92   64.20  1.100 -0.550 0 2 0 2  0.417  0.417 331.69    0.00     0.00    0.00   1   90.00     0    0    0   110 2400.0  1   1    8    0   0.000    0.000    0.000  1
 30   1    1  1 0 0    29  16    79  576  576     0.00000   7.30794 1.09545e-003    54    93  -5.31  -9.89   0.13  -23.30   16.87   63.66  1.100 -0.550 0 2 0 2  0.417  0.417 331.69    0.00     0.00    0.00   1   90.00     0    0    0   110 2400.0  1   1    8    0   0.000    0.000    0.000  1
 31   1    1  1 0 0    30  16    79  576  576     0.00000   7.30794 1.09545e-003    58   100  -5.31  -9.89   0.13  -23.21   16.82   63.12  1.100 -0.550 0 2 0 2  0.417  0.417 331.69    0.00     0.00    0.00   1   90.00     0    0    0   110 2400.0  1   1    8    0   0.000    0.000    0.000  1
 32   1    1  1 0 0    31  16    79  576  576     0.00000   7.30794 1.09545e-003   119   207  -5.31  -9.89   0.13  -23.12   16.77   62.58  1.100 -0.550 0 2 0 2  0.417  0.417 331.69    0.00     0.00    0.00   1   90.00     0    0    0   110 2400.0  1   1    8    0   0.000    0.000    0.000  1
 33   1    1  1 0 0    32  16    79  576  576     0.00000   7.30794 1.09545e-003   220   383  -5.31  -9.89   0.13  -23.02   16.72   62.04  1.100 -0.550 0 2 0 2  0.417  0.417 331.69    0.00     0.00    0.00   1   90.00     0    0    0   110 2400.0  1   1    8    0   0.000    0.000    0.000  1
 34   1    1  1 0 0    33  16    79  576  576     0.00000   7.30794 1.09545e-003   305   531  -5.31  -9.89   0.13  -22.93   16.67   61.50  1.100 -0.550 0 2 0 2  0.417  0.417 331.69    0.00     0.00    0.00   1   90.00     0    0    0   110 2400.0  1   1    8    0   0.000    0.000    0.000  1
 35   1    1  1 0 0    34  16    79  576  576     0.00000   7.30794 1.09545e-003   341   593  -5.31  -9.89   0.13  -22.83   16.62   60.96  1.100 -0.550 0 2 0 2  0.417  0.417 331.69    0.00     0.00    0.00   1   90.00     0    0    0   110 2400.0  1   1    8    0   0.000    0.000    0.000  1
 36   1    1  1 0 0    35  16    79  576  576     0.00000   7.30794 1.09545e-003   344   598  -5.31  -9.89   0.13  -22.74   16.57   60.42  1.100 -0.550 0 2 0 2  0.417  0.417 331.69    0.00     0.00    0.00   1   90.00     0    0    0   110 2400.0  1   1    8    0   0.000    0.000    0.000  1
 37   1    1  1 0 0    36  16    79  576  576     0.00000   7.30794 1.09545e-003   362   630  -5.31  -9.89   0.13  -22.64   16.52   59.88  1.100 -0.550 0 2 0 2  0.417  0.417 331.69    0.00     0.00    0.00   1   90.00     0    0    0   110 2400.0  1   1    8    0   0.000    0.000    0.000  1
 38   1    1  1 0 0    37  16    79  576  576     0.00000   7.30794 1.09545e-003   390   678  -5.31  -9.89   0.13  -22.55   16.47   59.34  1.100 -0.550 0 2 0 2  0.417  0.417 331.69    0.00     0.00    0.00   1   90.00     0    0    0   110 2400.0  1   1    8    0   0.000    0.000    0.000  1
 39   1    1  1 0 0    38  16    79  576  576     0.00000   7.30794 1.09545e-003   392   682  -5.31  -9.89   0.13  -22.45   16.42   58.80  1.100 -0.550 0 2 0 2  0.417  0.417 331.69    0.00     0.00    0.00   1   90.00     0    0    0   110 2400.0  1   1    8    0   0.000    0.000    0.000  1
 40   1    1  1 0 0    39  16    79  576  576     0.00000   7.30794 1.09545e-003   383   665  -5.31  -9.89   0.13  -22.36   16.37   58.26  1.100 -0.550 0 2 0 2  0.417  0.417 331.69    0.00     0.00    0.00   1   90.00     0    0    0   110 2400.0  1   1    8    0   0.000    0.000    0.000  1
 41   1    1  1 0 0    40  16    79  576  576     0.00000   7.30794 1.09545e-003   387   673  -5.31  -9.89   0.13  -22.26   16.32   57.72  1.100 -0.550 0 2 0 2  0.417  0.417 331.69    0.00     0.00    0.00   1   90.00     0    0    0   110 2400.0  1   1    8    0   0.000    0.000    0.000  1
 42   1    1  1 0 0    41  16    79  576  576     0.00000   7.30794 1.09545e-003   402   699  -5.31  -9.89   0.13  -22.17   16.27   57.18  1.100 -0.550 0 2 0 2  0.417  0.417 331.69    0.00     0.00    0.00   1   90.00     0    0    0   110 2400.0  1   1    8    0   0.000    0.000    0.000  1
 43   1    1  1 0 0    42  16    79  576  576     0.00000   7.30794 1.09545e-003   429   745  -5.31  -9.89   0.13  -22.07   16.22   56.64  1.100 -0.550 0 2 0 2  0.417  0.417 331.69    0.00     0.00    0.00   1   90.00     0    0    0   110 2400.0  1   1    8    0   0.000    0.000    0.000  1
 44   1    1  1 0 0    43  16    79  576  576     0.00000   7.30794 1.09545e-003   437   760  -5.31  -9.89   0.13  -21.98   16.17   56.10  1.100 -0.550 0 2 0 2  0.417  0.417 331.69    0.00     0.00    0.00   1   90.00     0    0    0   110 2400.0  1   1    8    0   0.000    0.000    0.000  1
 45   1    1  1 0 0    44  16    79  576  576     0.00000   7.30794 1.09545e-003   457   795  -5.31  -9.89   0.13  -21.89   16.12   55.56  1.100 -0.550 0 2 0 2  0.417  0.417 331.69    0.00     0.00    0.00   1   90.00     0    0    0   110 2400.0  1   1    8    0   0.000    0.000    0.000  1
 46   1    1  1 0 0    45  16    79  576  576     0.00000   7.30794 1.09545e-003   501   871  -5.31  -9.89   0.13  -21.79   16.07   55.02  1.100 -0.550 0 2 0 2  0.417  0.417 331.69    0.00     0.00    0.00   1   90.00     0    0    0   110 2400.0  1   1    8    0   0.000    0.000    0.000  1
 47   1    1  1 0 0    46  16    79  576  576     0.00000   7.30794 1.09545e-003   497   864  -5.31  -9.89   0.13  -21.70   16.02   54.48  1.100 -0.550 0 2 0 2  0.417  0.417 331.69    0.00     0.00    0.00   1   90.00     0    0    0   110 2400.0  1   1    8    0   0.000    0.000    0.000  1
 48   1    1  1 0 0    47  16    79  576  576     0.00000   7.30794 1.09545e-003   532   925  -5.31  -9.89   0.13  -21.60   15.97   53.94  1.100 -0.550 0 2 0 2  0.417  0.417 331.69    0.00     0.00    0.00   1   90.00     0    0    0   110 2400.0  1   1    8    0   0.000    0.000    0.000  1
 49   1    1  1 0 0    48  16    79  576  576     0.00000   7.30794 1.09545e-003   635  1104  -5.31  -9.89   0.13  -21.51   15.92   53.41  1.100 -0.550 0 2 0 2  0.417  0.417 331.69    0.00     0.00    0.00   1   90.00     0    0    0   110 2400.0  1   1    8    0   0.000    0.000    0.000  1
 50   1    1  1 0 0    49  16    79  576  576     0.00000   7.30794 1.09545e-003   764  1328  -5.31  -9.89   0.13  -21.41   15.87   52.87  1.100 -0.550 0 2 0 2  0.417  0.417 331.69    0.00     0.00    0.00   1   90.00     0    0    0   110 2400.0  1   1    8    0   0.000    0.000    0.000  1
 51   1    1  1 0 0    50  16    79  576  576     0.00000   7.30794 1.09545e-003   802  1394  -5.31  -9.89   0.13  -21.32   15.82   52.33  1.100 -0.550 0 2 0 2  0.417  0.417 331.69    0.00     0.00    0.00   1   90.00     0    0    0   110 2400.0  1   1    8    0   0.000    0.000    0.000  1
 52   1    1  1 0 0    51  16    79  576  576     0.00000   7.30794 1.09545e-003   800  1391  -5.31  -9.89   0.13  -21.22   15.77   51.79  1.100 -0.550 0 2 0 2  0.417  0.417 331.69    0.00     0.00    0.00   1   90.00     0    0    0   110 2400.0  1   1    8    0   0.000    0.000    0.000  1
 53   1    1  1 0 0    52  16    79  576  576     0.00000   7.30794 1.09545e-003   826  1436  -5.31  -9.89   0.13  -21.13   15.72   51.25  1.100 -0.550 0 2 0 2  0.417  0.417 331.69    0.00     0.00    0.00   1   90.00     0    0    0   110 2400.0  1   1    8    0   0.000    0.000    0.000  1
 54   1    1  1 0 0    53  16    79  576  576     0.00000   7.30794 1.09545e-003   830  1442  -5.31  -9.89   0.13  -21.03   15.67   50.71  1.100 -0.550 0 2 0 2  0.417  0.417 331.69    0.00     0.00    0.00   1   90.00     0    0    0   110 2400.0  1   1    8    0   0.000    0.000    0.000  1
 55   1    1  1 0 0    54  16    79  576  576     0.00000   7.30794 1.09545e-003   853  1482  -5.31  -9.89   0.13  -20.94   15.62   50.17  1.100 -0.550 0 2 0 2  0.417  0.417 331.69    0.00     0.00    0.00   1   90.00     0    0    0   110 2400.0  1   1    8    0   0.000    0.000    0.000  1
 56   1    1  1 0 0    55  16    79  576  576     0.00000   7.30794 1.09545e-003   845  1469  -5.31  -9.89   0.13  -20.85   15.57   49.63  1.100 -0.550 0 2 0 2  0.417  0.417 331.69    0.00     0.00    0.00   1   90.00     0    0    0   110 2400.0  1   1    8    0   0.000    0.000    0.000  1
 57   1    1  1 0 0    56  16    79  576  576     0.00000   7.30794 1.09545e-003   861  1497  -5.31  -9.89   0.13  -20.75   15.52   49.09  1.100 -0.550 0 2 0 2  0.417  0.417 331.69    0.00     0.00    0.00   1   90.00     0    0    0   110 2400.0  1   1    8    0   0.000    0.000    0.000  1
 58   1    1  1 0 0    57  16    79  576  576     0.00000   7.30794 1.09545e-003   831  1444  -5.31  -9.89   0.13  -20.66   15.47   48.55  1.100 -0.550 0 2 0 2  0.417  0.417 331.69    0.00     0.00    0.00   1   90.00     0    0    0   110 2400.0  1   1    8    0   0.000    0.000    0.000  1
 59   1    1  1 0 0    58  16    79  576  576     0.00000   7.30794 1.09545e-003   825  1434  -5.31  -9.89   0.13  -20.56   15.42   48.01  1.100 -0.550 0 2 0 2  0.417  0.417 331.69    0.00     0.00    0.00   1   90.00     0    0    0   110 2400.0  1   1    8    0   0.000    0.000    0.000  1
 60   1    1  1 0 0    59  16    79  576  576     0.00000   7.30794 1.09545e-003   824  1433  -5.31  -9.89   0.13  -20.47   15.37   47.47  1.100 -0.550 0 2 0 2  0.417  0.417 331.69    0.00     0.00    0.00   1   90.00     0    0    0   110 2400.0  1   1    8    0   0.000    0.000    0.000  1
 61   1    1  1 0 0    60  16    79  576  576     0.00000   7.30794 1.09545e-003   829  1441  -5.31  -9.89   0.13  -20.37   15.33   46.93  1.100 -0.550 0 2 0 2  0.417  0.417 331.69    0.00     0.00    0.00   1   90.00     0    0    0   110 2400.0  1   1    8    0   0.000    0.000    0.000  1
 62   1    1  1 0 0    61  16    79  576  576     0.00000   7.30794 1.09545e-003   825  1435  -5.31  -9.89   0.13  -20.28   15.28   46.39  1.100 -0.550 0 2 0 2  0.417  0.417 331.69    0.00     0.00    0.00   1   90.00     0    0    0   110 2400.0  1   1    8    0   0.000    0.000    0.000  1
 63   1    1  1 0 0    62  16    79  576  576     0.00000   7.30794 1.09545e-003   821  1428  -5.31  -9.89   0.13  -20.18   15.23   45.85  1.100 -0.550 0 2 0 2  0.417  0.417 331.69    0.00     0.00    0.00   1   90.00     0    0    0   110 2400.0  1   1    8    0   0.000    0.000    0.000  1
 64   1    1  1 0 0    63  16    79  576  576     0.00000   7.30794 1.09545e-003   838  1457  -5.31  -9.89   0.13  -20.09   15.18   45.31  1.100 -0.550 0 2 0 2  0.417  0.417 331.69    0.00     0.00    0.00   1   90.00     0    0    0   110 2400.0  1   1    8    0   0.000    0.000    0.000  1
 65   1    1  1 0 0    64  16    79  576  576     0.00000   7.30794 1.09545e-003   923  1605  -5.31  -9.89   0.13  -19.99   15.13   44.77  1.100 -0.550 0 2 0 2  0.417  0.417 331.69    0.00     0.00    0.00   1   90.00     0    0    0   110 2400.0  1   1    8    0   0.000    0.000    0.000  1
 66   1    1  1 0 0    65  16    79  576  576     0.00000   7.30794 1.09545e-003  1048  1822  -5.31  -9.89   0.13  -19.90   15.08   44.23  1.100 -0.550 0 2 0 2  0.417  0.417 331.69    0.00     0.00    0.00   1   90.00     0    0    0   110 2400.0  1   1    8    0   0.000    0.000    0.000  1
 67   1    1  1 0 0    66  16    79  576  576     0.00000   7.30794 1.09545e-003  1166  2027  -5.31  -9.89   0.13  -19.81   15.03   43.69  1.100 -0.550 0 2 0 2  0.417  0.417 331.69    0.00     0.00    0.00   1   90.00     0    0    0   110 2400.0  1   1    8    0   0.000    0.000    0.000  1
 68   1    1  1 0 0    67  16    79  576  576     0.00000   7.30794 1.09545e-003  1261  2192  -5.31  -9.89   0.13  -19.71   14.98   43.15  1.100 -0.550 0 2 0 2  0.417  0.417 331.69    0.00     0.00    0.00   1   90.00     0    0    0   110 2400.0  1   1    8    0   0.000    0.000    0.000  1
 69   1    1  1 0 0    68  16    79  576  576     0.00000   7.30794 1.09545e-003  1319  2293  -5.31  -9.89   0.13  -19.62   14.93   42.62  1.100 -0.550 0 2 0 2  0.417  0.417 331.69    0.00     0.00    0.00   1   90.00     0    0    0   110 2400.0  1   1    8    0   0.000    0.000    0.000  1
 70   1    1  1 0 0    69  16    79  576  576     0.00000   7.30794 1.09545e-003  1394  2424  -5.31  -9.89   0.13  -19.52   14.88   42.08  1.100 -0.550 0 2 0 2  0.417  0.417 331.69    0.00     0.00    0.00   1   90.00     0    0    0   110 2400.0  1   1    8    0   0.000    0.000    0.000  1
 71   1    1  1 0 0    70  16    79  576  576     0.00000   7.30794 1.09545e-003  1430  2486  -5.31  -9.89   0.13  -19.43   14.83   41.54  1.100 -0.550 0 2 0 2  0.417  0.417 331.69    0.00     0.00    0.00   1   90.00     0    0    0   110 2400.0  1   1    8    0   0.000    0.000    0.000  1
 72   1    1  1 0 0    71  16    79  576  576     0.00000   7.30794 1.09545e-003  1462  2541  -5.31  -9.89   0.13  -19.33   14.78   41.00  1.100 -0.550 0 2 0 2  0.417  0.417 331.69    0.00     0.00    0.00   1   90.00     0    0    0   110 2400.0  1   1    8    0   0.000    0.000    0.000  1
 73   1    1  1 0 0    72  16    79  576  576     0.00000   7.30794 1.09545e-003  1489  2587  -5.31  -9.89   0.13  -19.24   14.73   40.46  1.100 -0.550 0 2 0 2  0.417  0.417 331.69    0.00     0.00    0.00   1   90.00     0    0    0   110 2400.0  1   1    8    0   0.000    0.000    0.000  1
 74   1    1  1 0 0    73  16    79  576  576     0.00000   7.30794 1.09545e-003  1506  2619  -5.31  -9.89   0.13  -19.14   14.68   39.92  1.100 -0.550 0 2 0 2  0.417  0.417 331.69    0.00     0.00    0.00   1   90.00     0    0    0   110 2400.0  1   1    8    0   0.000    0.000    0.000  1
 75   1    1  1 0 0    74  16    79  576  576     0.00000   7.30794 1.09545e-003  1529  2658  -5.31  -9.89   0.13  -19.05   14.63   39.38  1.100 -0.550 0 2 0 2  0.417  0.417 331.69    0.00     0.00    0.00   1   90.00     0    0    0   110 2400.0  1   1    8    0   0.000    0.000    0.000  1
 76   1    1  1 0 0    75  16    79  576  576     0.00000   7.30794 1.09545e-003  1544  2683  -5.31  -9.89   0.13  -18.95   14.58   38.84  1.100 -0.550 0 2 0 2  0.417  0.417 331.69    0.00     0.00    0.00   1   90.00     0    0    0   110 2400.0  1   1    8    0   0.000    0.000    0.000  1
 77   1    1  1 0 0    76  16    79  576  576     0.00000   7.30794 1.09545e-003  1556  2705  -5.31  -9.89   0.13  -18.86   14.53   38.30  1.100 -0.550 0 2 0 2  0.417  0.417 331.69    0.00     0.00    0.00   1   90.00     0    0    0   110 2400.0  1   1    8    0   0.000    0.000    0.000  1
 78   1    1  1 0 0    77  16    79  576  576     0.00000   7.30794 1.09545e-003  1572  2733  -5.31  -9.89   0.13  -18.77   14.48   37.76  1.100 -0.550 0 2 0 2  0.417  0.417 331.69    0.00     0.00    0.00   1   90.00     0    0    0   110 2400.0  1   1    8    0   0.000    0.000    0.000  1
 79   1    1  1 0 0    78  16    79  576  576     0.00000   7.30794 1.09545e-003  1579  2745  -5.31  -9.89   0.13  -18.67   14.43   37.22  1.100 -0.550 0 2 0 2  0.417  0.417 331.69    0.00     0.00    0.00   1   90.00     0    0    0   110 2400.0  1   1    8    0   0.000    0.000    0.000  1
 80   1    1  1 0 0    79  16    79  576  576     0.00000   7.30794 1.09545e-003  1587  2758  -5.31  -9.89   0.13  -18.58   14.38   36.68  1.100 -0.550 0 2 0 2  0.417  0.417 331.69    0.00     0.00    0.00   1   90.00     0    0    0   110 2400.0  1   1    8    0   0.000    0.000    0.000  1
 81   1    1  1 0 0    80  16    79  576  576     0.00000   7.30794 1.09545e-003  1593  2769  -5.31  -9.89   0.13  -18.48   14.33   36.14  1.100 -0.550 0 2 0 2  0.417  0.417 331.69    0.00     0.00    0.00   1   90.00     0    0    0   110 2400.0  1   1    8    0   0.000    0.000    0.000  1
 82   1    1  1 0 0    81  16    79  576  576     0.00000   7.30794 1.09545e-003  1597  2776  -5.31  -9.89   0.13  -18.39   14.28   35.60  1.100 -0.550 0 2 0 2  0.417  0.417 331.69    0.00     0.00    0.00   1   90.00     0    0    0   110 2400.0  1   1    8    0   0.000    0.000    0.000  1
 83   1    1  1 0 0    82  16    79  576  576     0.00000   7.30794 1.09545e-003  1608  2795  -5.31  -9.89   0.13  -18.29   14.23   35.06  1.100 -0.550 0 2 0 2  0.417  0.417 331.69    0.00     0.00    0.00   1   90.00     0    0    0   110 2400.0  1   1    8    0   0.000    0.000    0.000  1
 84   1    1  1 0 0    83  16    79  576  576     0.00000   7.30794 1.09545e-003  1608  2796  -5.31  -9.89   0.13  -18.20   14.18   34.52  1.100 -0.550 0 2 0 2  0.417  0.417 331.69    0.00     0.00    0.00   1   90.00     0    0    0   110 2400.0  1   1    8    0   0.000    0.000    0.000  1
