# === DATA DESCRIPTION FILE ======================================================
#
# CAUTION - Investigational device.
# Limited by Federal Law to investigational use.
#
#
# CLINICAL TRYOUT             Research image export tool     V4.2
#
# === GENERAL INFORMATION ========================================================
#
.    Protocol name                      :   WIP 3D FLAIR Sag UMich SENSE
.    Series Type                        :   Image   MRSERIES
.    Acquisition nr                     :   4
.    Reconstruction nr                  :   1
.    Scan Duration [sec]                :   528
.    Max. number of cardiac phases      :   1
.    Max. number of echoes              :   1
.    Max. number of slices/locations    :   327
.    Max. number of dynamics            :   1
.    Max. number of mixes               :   1
.    Patient position                   :   Head First Supine
.    Preparation direction              :   Anterior-Posterior
.    Technique                          :   TIR
.    Scan resolution  (x, y)            :   216  220
.    Scan mode                          :   3D
.    Repetition time [ms]               :   8000.000  
.    FOV (ap,fh,rl) [mm]                :   240.000  200.000  179.850
.    Water Fat shift [pixels]           :   0.858
.    Angulation midslice(ap,fh,rl)[degr]:   -3.899  -6.517  0.669
.    Off Centre midslice(ap,fh,rl) [mm] :   -12.162  11.775  2.511
.    Flow compensation <0=no 1=yes> ?   :   1
.    Presaturation     <0=no 1=yes> ?   :   0
.    Phase encoding velocity [cm/sec]   :   0.000000  0.000000  0.000000
.    MTC               <0=no 1=yes> ?   :   0
.    SPIR              <0=no 1=yes> ?   :   1
.    EPI factor        <0,1=no EPI>     :   1
.    Dynamic scan      <0=no 1=yes> ?   :   0
.    Diffusion         <0=no 1=yes> ?   :   0
.    Diffusion echo time [ms]           :   0.0000
.    Max. number of diffusion values    :   1
.    Max. number of gradient orients    :   1
.    Number of label types   <0=no ASL> :   0
#
# === PIXEL VALUES =============================================================
#  PV = pixel value in REC file, FP = floating point value, DV = displayed value on console
#  RS = rescale slope,           RI = rescale intercept,    SS = scale slope
#  DV = PV * RS + RI             FP = DV / (RS * SS)
#
# === IMAGE INFORMATION DEFINITION =============================================
#  The rest of this file contains ONE line per image, this line contains the following information:
#
#  slice number                             (integer)
#  echo number                              (integer)
#  dynamic scan number                      (integer)
#  cardiac phase number                     (integer)
#  image_type_mr                            (integer)
#  scanning sequence                        (integer)
#  index in REC file (in images)            (integer)
#  image pixel size (in bits)               (integer)
#  scan percentage                          (integer)
#  recon resolution (x y)                   (2*integer)
#  rescale intercept                        (float)
#  rescale slope                            (float)
#  scale slope                              (float)
#  window center                            (integer)
#  window width                             (integer)
#  image angulation (ap,fh,rl in degrees )  (3*float)
#  image offcentre (ap,fh,rl in mm )        (3*float)
#  slice thickness (in mm )                 (float)
#  slice gap (in mm )                       (float)
#  image_display_orientation                (integer)
#  slice orientation ( TRA/SAG/COR )        (integer)
#  fmri_status_indication                   (integer)
#  image_type_ed_es  (end diast/end syst)   (integer)
#  pixel spacing (x,y) (in mm)              (2*float)
#  echo_time                                (float)
#  dyn_scan_begin_time                      (float)
#  trigger_time                             (float)
#  diffusion_b_factor                       (float)
#  number of averages                       (integer)
#  image_flip_angle (in degrees)            (float)
#  cardiac frequency   (bpm)                (integer)
#  minimum RR-interval (in ms)              (integer)
#  maximum RR-interval (in ms)              (integer)
#  TURBO factor  <0=no turbo>               (integer)
#  Inversion delay (in ms)                  (float)
#  diffusion b value number    (imagekey!)  (integer)
#  gradient orientation number (imagekey!)  (integer)
#  contrast type                            (string)
#  diffusion anisotropy type                (string)
#  diffusion (ap, fh, rl)                   (3*float)
#  label type (ASL)            (imagekey!)  (integer)
#
# === IMAGE INFORMATION ==========================================================
#  sl ec  dyn ph ty    idx pix scan% rec size                (re)scale              window        angulation              offcentre        thick   gap   info      spacing     echo     dtime   ttime    diff  avg  flip    freq   RR-int  turbo delay b grad cont anis         diffusion       L.ty

  1   1    1  1 0 0     0  16    79  576  576     0.00000   6.95189 1.17358e-003     9    16  -3.90  -6.52   0.67  -22.41   17.71   91.38  1.100 -0.550 0 2 0 2  0.417  0.417 331.69    0.00     0.00    0.00   1   90.00     0    0    0   110 2400.0  1   1    8    0   0.000    0.000    0.000  1
  2   1    1  1 0 0     1  16    79  576  576     0.00000   6.95189 1.17358e-003    26    46  -3.90  -6.52   0.67  -22.34   17.68   90.83  1.100 -0.550 0 2 0 2  0.417  0.417 331.69    0.00     0.00    0.00   1   90.00     0    0    0   110 2400.0  1   1    8    0   0.000    0.000    0.000  1
  3   1    1  1 0 0     2  16    79  576  576     0.00000   6.95189 1.17358e-003    33    58  -3.90  -6.52   0.67  -22.28   17.64   90.29  1.100 -0.550 0 2 0 2  0.417  0.417 331.69    0.00     0.00    0.00   1   90.00     0    0    0   110 2400.0  1   1    8    0   0.000    0.000    0.000  1
  4   1    1  1 0 0     3  16    79  576  576     0.00000   6.95189 1.17358e-003    34    59  -3.90  -6.52   0.67  -22.22   17.60   89.74  1.100 -0.550 0 2 0 2  0.417  0.417 331.69    0.00     0.00    0.00   1   90.00     0    0    0   110 2400.0  1   1    8    0   0.000    0.000    0.000  1
  5   1    1  1 0 0     4  16    79  576  576     0.00000   6.95189 1.17358e-003    37    64  -3.90  -6.52   0.67  -22.16   17.57   89.20  1.100 -0.550 0 2 0 2  0.417  0.417 331.69    0.00     0.00    0.00   1   90.00     0    0    0   110 2400.0  1   1    8    0   0.000    0.000    0.000  1
  6   1    1  1 0 0     5  16    79  576  576     0.00000   6.95189 1.17358e-003    41    71  -3.90  -6.52   0.67  -22.09   17.53   88.65  1.100 -0.550 0 2 0 2  0.417  0.417 331.69    0.00     0.00    0.00   1   90.00     0    0    0   110 2400.0  1   1    8    0   0.000    0.000    0.000  1
  7   1    1  1 0 0     6  16    79  576  576     0.00000   6.95189 1.17358e-003    41    71  -3.90  -6.52   0.67  -22.03   17.49   88.10  1.100 -0.550 0 2 0 2  0.417  0.417 331.69    0.00     0.00    0.00   1   90.00     0    0    0   110 2400.0  1   1    8    0   0.000    0.000    0.000  1
  8   1    1  1 0 0     7  16    79  576  576     0.00000   6.95189 1.17358e-003    42    72  -3.90  -6.52   0.67  -21.97   17.46   87.56  1.100 -0.550 0 2 0 2  0.417  0.417 331.69    0.00     0.00    0.00   1   90.00     0    0    0   110 2400.0  1   1    8    0   0.000    0.000    0.000  1
  9   1    1  1 0 0     8  16    79  576  576     0.00000   6.95189 1.17358e-003    49    84  -3.90  -6.52   0.67  -21.90   17.42   87.01  1.100 -0.550 0 2 0 2  0.417  0.417 331.69    0.00     0.00    0.00   1   90.00     0    0    0   110 2400.0  1   1    8    0   0.000    0.000    0.000  1
 10   1    1  1 0 0     9  16    79  576  576     0.00000   6.95189 1.17358e-003    63   110  -3.90  -6.52   0.67  -21.84   17.38   86.47  1.100 -0.550 0 2 0 2  0.417  0.417 331.69    0.00     0.00    0.00   1   90.00     0    0    0   110 2400.0  1   1    8    0   0.000    0.000    0.000  1
 11   1    1  1 0 0    10  16    79  576  576     0.00000   6.95189 1.17358e-003   144   250  -3.90  -6.52   0.67  -21.78   17.35   85.92  1.100 -0.550 0 2 0 2  0.417  0.417 331.69    0.00     0.00    0.00   1   90.00     0    0    0   110 2400.0  1   1    8    0   0.000    0.000    0.000  1
 12   1    1  1 0 0    11  16    79  576  576     0.00000   6.95189 1.17358e-003   180   313  -3.90  -6.52   0.67  -21.72   17.31   85.38  1.100 -0.550 0 2 0 2  0.417  0.417 331.69    0.00     0.00    0.00   1   90.00     0    0    0   110 2400.0  1   1    8    0   0.000    0.000    0.000  1
 13   1    1  1 0 0    12  16    79  576  576     0.00000   6.95189 1.17358e-003   189   329  -3.90  -6.52   0.67  -21.65   17.28   84.83  1.100 -0.550 0 2 0 2  0.417  0.417 331.69    0.00     0.00    0.00   1   90.00     0    0    0   110 2400.0  1   1    8    0   0.000    0.000    0.000  1
 14   1    1  1 0 0    13  16    79  576  576     0.00000   6.95189 1.17358e-003   207   360  -3.90  -6.52   0.67  -21.59   17.24   84.29  1.100 -0.550 0 2 0 2  0.417  0.417 331.69    0.00     0.00    0.00   1   90.00     0    0    0   110 2400.0  1   1    8    0   0.000    0.000    0.000  1
 15   1    1  1 0 0    14  16    79  576  576     0.00000   6.95189 1.17358e-003   232   403  -3.90  -6.52   0.67  -21.53   17.20   83.74  1.100 -0.550 0 2 0 2  0.417  0.417 331.69    0.00     0.00    0.00   1   90.00     0    0    0   110 2400.0  1   1    8    0   0.000    0.000    0.000  1
 16   1    1  1 0 0    15  16    79  576  576     0.00000   6.95189 1.17358e-003   258   448  -3.90  -6.52   0.67  -21.46   17.17   83.20  1.100 -0.550 0 2 0 2  0.417  0.417 331.69    0.00     0.00    0.00   1   90.00     0    0    0   110 2400.0  1   1    8    0   0.000    0.000    0.000  1
 17   1    1  1 0 0    16  16    79  576  576     0.00000   6.95189 1.17358e-003   269   467  -3.90  -6.52   0.67  -21.40   17.13   82.65  1.100 -0.550 0 2 0 2  0.417  0.417 331.69    0.00     0.00    0.00   1   90.00     0    0    0   110 2400.0  1   1    8    0   0.000    0.000    0.000  1
 18   1    1  1 0 0    17  16    79  576  576     0.00000   6.95189 1.17358e-003   287   498  -3.90  -6.52   0.67  -21.34   17.09   82.11  1.100 -0.550 0 2 0 2  0.417  0.417 331.69    0.00     0.00    0.00   1   90.00     0    0    0   110 2400.0  1   1    8    0   0.000    0.000    0.000  1
 19   1    1  1 0 0    18  16    79  576  576     0.00000   6.95189 1.17358e-003   305   531  -3.90  -6.52   0.67  -21.28   17.06   81.56  1.100 -0.550 0 2 0 2  0.417  0.417 331.69    0.00     0.00    0.00   1   90.00     0    0    0   110 2400.0  1   1    8    0   0.000    0.000    0.000  1
 20   1    1  1 0 0    19  16    79  576  576     0.00000   6.95189 1.17358e-003   317   550  -3.90  -6.52   0.67  -21.21   17.02   81.02  1.100 -0.550 0 2 0 2  0.417  0.417 331.69    0.00     0.00    0.00   1   90.00     0    0    0   110 2400.0  1   1    8    0   0.000    0.000    0.000  1
 21   1    1  1 0 0    20  16    79  576  576     0.00000   6.95189 1.17358e-003   323   561  -3.90  -6.52   0.67  -21.15   16.98   80.47  1.100 -0.550 0 2 0 2  0.417  0.417 331.69    0.00     0.00    0.00   1   90.00     0    0    0   110 2400.0  1   1    8    0   0.000    0.000    0.000  1
 22   1    1  1 0 0    21  16    79  576  576     0.00000   6.95189 1.17358e-003   335   582  -3.90  -6.52   0.67  -21.09   16.95   79.93  1.100 -0.550 0 2 0 2  0.417  0.417 331.69    0.00     0.00    0.00   1   90.00     0    0    0   110 2400.0  1   1    8    0   0.000    0.000    0.000  1
 23   1    1  1 0 0    22  16    79  576  576     0.00000   6.95189 1.17358e-003   348   604  -3.90  -6.52   0.67  -21.02   16.91   79.38  1.100 -0.550 0 2 0 2  0.417  0.417 331.69    0.00     0.00    0.00   1   90.00     0    0    0   110 2400.0  1   1    8    0   0.000    0.000    0.000  1
 24   1    1  1 0 0    23  16    79  576  576     0.00000   6.95189 1.17358e-003   389   676  -3.90  -6.52   0.67  -20.96   16.87   78.84  1.100 -0.550 0 2 0 2  0.417  0.417 331.69    0.00     0.00    0.00   1   90.00     0    0    0   110 2400.0  1   1    8    0   0.000    0.000    0.000  1
 25   1    1  1 0 0    24  16    79  576  576     0.00000   6.95189 1.17358e-003   427   742  -3.90  -6.52   0.67  -20.90   16.84   78.29  1.100 -0.550 0 2 0 2  0.417  0.417 331.69    0.00     0.00    0.00   1   90.00     0    0    0   110 2400.0  1   1    8    0   0.000    0.000    0.000  1
 26   1    1  1 0 0    25  16    79  576  576     0.00000   6.95189 1.17358e-003   448   779  -3.90  -6.52   0.67  -20.84   16.80   77.75  1.100 -0.550 0 2 0 2  0.417  0.417 331.69    0.00     0.00    0.00   1   90.00     0    0    0   110 2400.0  1   1    8    0   0.000    0.000    0.000  1
 27   1    1  1 0 0    26  16    79  576  576     0.00000   6.95189 1.17358e-003   454   789  -3.90  -6.52   0.67  -20.77   16.77   77.20  1.100 -0.550 0 2 0 2  0.417  0.417 331.69    0.00     0.00    0.00   1   90.00     0    0    0   110 2400.0  1   1    8    0   0.000    0.000    0.000  1
 28   1    1  1 0 0    27  16    79  576  576     0.00000   6.95189 1.17358e-003   423   735  -3.90  -6.52   0.67  -20.71   16.73   76.66  1.100 -0.550 0 2 0 2  0.417  0.417 331.69    0.00     0.00    0.00   1   90.00     0    0    0   110 2400.0  1   1    8    0   0.000    0.000    0.000  1
 29   1    1  1 0 0    28  16    79  576  576     0.00000   6.95189 1.17358e-003   418   727  -3.90  -6.52   0.67  -20.65   16.69   76.11  1.100 -0.550 0 2 0 2  0.417  0.417 331.69    0.00     0.00    0.00   1   90.00     0    0    0   110 2400.0  1   1    8    0   0.000    0.000    0.000  1
 30   1    1  1 0 0    29  16    79  576  576     0.00000   6.95189 1.17358e-003   419   728  -3.90  -6.52   0.67  -20.58   16.66   75.57  1.100 -0.550 0 2 0 2  0.417  0.417 331.69    0.00     0.00    0.00   1   90.00     0    0    0   110 2400.0  1   1    8    0   0.000    0.000    0.000  1
 31   1    1  1 0 0    30  16    79  576  576     0.00000   6.95189 1.17358e-003   438   762  -3.90  -6.52   0.67  -20.52   16.62   75.02  1.100 -0.550 0 2 0 2  0.417  0.417 331.69    0.00     0.00    0.00   1   90.00     0    0    0   110 2400.0  1   1    8    0   0.000    0.000    0.000  1
 32   1    1  1 0 0    31  16    79  576  576     0.00000   6.95189 1.17358e-003   486   845  -3.90  -6.52   0.67  -20.46   16.58   74.48  1.100 -0.550 0 2 0 2  0.417  0.417 331.69    0.00     0.00    0.00   1   90.00     0    0    0   110 2400.0  1   1    8    0   0.000    0.000    0.000  1
 33   1    1  1 0 0    32  16    79  576  576     0.00000   6.95189 1.17358e-003   536   932  -3.90  -6.52   0.67  -20.40   16.55   73.93  1.100 -0.550 0 2 0 2  0.417  0.417 331.69    0.00     0.00    0.00   1   90.00     0    0    0   110 2400.0  1   1    8    0   0.000    0.000    0.000  1
 34   1    1  1 0 0    33  16    79  576  576     0.00000   6.95189 1.17358e-003   617  1073  -3.90  -6.52   0.67  -20.33   16.51   73.38  1.100 -0.550 0 2 0 2  0.417  0.417 331.69    0.00     0.00    0.00   1   90.00     0    0    0   110 2400.0  1   1    8    0   0.000    0.000    0.000  1
 35   1    1  1 0 0    34  16    79  576  576     0.00000   6.95189 1.17358e-003   673  1170  -3.90  -6.52   0.67  -20.27   16.47   72.84  1.100 -0.550 0 2 0 2  0.417  0.417 331.69    0.00     0.00    0.00   1   90.00     0    0    0   110 2400.0  1   1    8    0   0.000    0.000    0.000  1
 36   1    1  1 0 0    35  16    79  576  576     0.00000   6.95189 1.17358e-003   699  1216  -3.90  -6.52   0.67  -20.21   16.44   72.29  1.100 -0.550 0 2 0 2  0.417  0.417 331.69    0.00     0.00    0.00   1   90.00     0    0    0   110 2400.0  1   1    8    0   0.000    0.000    0.000  1
 37   1    1  1 0 0    36  16    79  576  576     0.00000   6.95189 1.17358e-003   723  1256  -3.90  -6.52   0.67  -20.14   16.40   71.75  1.100 -0.550 0 2 0 2  0.417  0.417 331.69    0.00     0.00    0.00   1   90.00     0    0    0   110 2400.0  1   1    8    0   0.000    0.000    0.000  1
 38   1    1  1 0 0    37  16    79  576  576     0.00000   6.95189 1.17358e-003   715  1243  -3.90  -6.52   0.67  -20.08   16.36   71.20  1.100 -0.550 0 2 0 2  0.417  0.417 331.69    0.00     0.00    0.00   1   90.00     0    0    0   110 2400.0  1   1    8    0   0.000    0.000    0.000  1
 39   1    1  1 0 0    38  16    79  576  576     0.00000   6.95189 1.17358e-003   705  1225  -3.90  -6.52   0.67  -20.02   16.33   70.66  1.100 -0.550 0 2 0 2  0.417  0.417 331.69    0.00     0.00    0.00   1   90.00     0    0    0   110 2400.0  1   1    8    0   0.000    0.000    0.000  1
 40   1    1  1 0 0    39  16    79  576  576     0.00000   6.95189 1.17358e-003   733  1275  -3.90  -6.52   0.67  -19.96   16.29   70.11  1.100 -0.550 0 2 0 2  0.417  0.417 331.69    0.00     0.00    0.00   1   90.00     0    0    0   110 2400.0  1   1    8    0   0.000    0.000    0.000  1
 41   1    1  1 0 0    40  16    79  576  576     0.00000   6.95189 1.17358e-003   767  1333  -3.90  -6.52   0.67  -19.89   16.26   69.57  1.100 -0.550 0 2 0 2  0.417  0.417 331.69    0.00     0.00    0.00   1   90.00     0    0    0   110 2400.0  1   1    8    0   0.000    0.000    0.000  1
 42   1    1  1 0 0    41  16    79  576  576     0.00000   6.95189 1.17358e-003   788  1371  -3.90  -6.52   0.67  -19.83   16.22   69.02  1.100 -0.550 0 2 0 2  0.417  0.417 331.69    0.00     0.00    0.00   1   90.00     0    0    0   110 2400.0  1   1    8    0   0.000    0.000    0.000  1
 43   1    1  1 0 0    42  16    79  576  576     0.00000   6.95189 1.17358e-003   767  1333  -3.90  -6.52   0.67  -19.77   16.18   68.48  1.100 -0.550 0 2 0 2  0.417  0.417 331.69    0.00     0.00    0.00   1   90.00     0    0    0   110 2400.0  1   1    8    0   0.000    0.000    0.000  1
 44   1    1  1 0 0    43  16    79  576  576     0.00000   6.95189 1.17358e-003   771  1341  -3.90  -6.52   0.67  -19.70   16.15   67.93  1.100 -0.550 0 2 0 2  0.417  0.417 331.69    0.00     0.00    0.00   1   90.00     0    0    0   110 2400.0  1   1    8    0   0.000    0.000    0.000  1
 45   1    1  1 0 0    44  16    79  576  576     0.00000   6.95189 1.17358e-003   733  1275  -3.90  -6.52   0.67  -19.64   16.11   67.39  1.100 -0.550 0 2 0 2  0.417  0.417 331.69    0.00     0.00    0.00   1   90.00     0    0    0   110 2400.0  1   1    8    0   0.000    0.000    0.000  1
 46   1    1  1 0 0    45  16    79  576  576     0.00000   6.95189 1.17358e-003   709  1232  -3.90  -6.52   0.67  -19.58   16.07   66.84  1.100 -0.550 0 2 0 2  0.417  0.417 331.69    0.00     0.00    0.00   1   90.00     0    0    0   110 2400.0  1   1    8    0   0.000    0.000    0.000  1
 47   1    1  1 0 0    46  16    79  576  576     0.00000   6.95189 1.17358e-003   733  1274  -3.90  -6.52   0.67  -19.52   16.04   66.30  1.100 -0.550 0 2 0 2  0.417  0.417 331.69    0.00     0.00    0.00   1   90.00     0    0    0   110 2400.0  1   1    8    0   0.000    0.000    0.000  1
 48   1    1  1 0 0    47  16    79  576  576     0.00000   6.95189 1.17358e-003   752  1307  -3.90  -6.52   0.67  -19.45   16.00   65.75  1.100 -0.550 0 2 0 2  0.417  0.417 331.69    0.00     0.00    0.00   1   90.00     0    0    0   110 2400.0  1   1    8    0   0.000    0.000    0.000  1
 49   1    1  1 0 0    48  16    79  576  576     0.00000   6.95189 1.17358e-003   764  1328  -3.90  -6.52   0.67  -19.39   15.96   65.21  1.100 -0.550 0 2 0 2  0.417  0.417 331.69    0.00     0.00    0.00   1   90.00     0    0    0   110 2400.0  1   1    8    0   0.000    0.000    0.000  1
 50   1    1  1 0 0    49  16    79  576  576     0.00000   6.95189 1.17358e-003   778  1353  -3.90  -6.52   0.67  -19.33   15.93   64.66  1.100 -0.550 0 2 0 2  0.417  0.417 331.69    0.00     0.00    0.00   1   90.00     0    0    0   110 2400.0  1   1    8    0   0.000    0.000    0.000  1
 51   1    1  1 0 0    50  16    79  576  576     0.00000   6.95189 1.17358e-003   792  1377  -3.90  -6.52   0.67  -19.26   15.89   64.12  1.100 -0.550 0 2 0 2  0.417  0.417 331.69    0.00     0.00    0.00   1   90.00     0    0    0   110 2400.0  1   1    8    0   0.000    0.000    0.000  1
 52   1    1  1 0 0    51  16    79  576  576     0.00000   6.95189 1.17358e-003   806  1401  -3.90  -6.52   0.67  -19.20   15.85   63.57  1.100 -0.550 0 2 0 2  0.417  0.417 331.69    0.00     0.00    0.00   1   90.00     0    0    0   110 2400.0  1   1    8    0   0.000    0.000    0.000  1
 53   1    1  1 0 0    52  16    79  576  576     0.00000   6.95189 1.17358e-003   850  1477  -3.90  -6.52   0.67  -19.14   15.82   63.03  1.100 -0.550 0 2 0 2  0.417  0.417 331.69    0.00     0.00    0.00   1   90.00     0    0    0   110 2400.0  1   1    8    0   0.000    0.000    0.000  1
 54   1    1  1 0 0    53  16    79  576  576     0.00000   6.95189 1.17358e-003   894  1555  -3.90  -6.52   0.67  -19.08   15.78   62.48  1.100 -0.550 0 2 0 2  0.417  0.417 331.69    0.00     0.00    0.00   1   90.00     0    0    0   110 2400.0  1   1    8    0   0.000    0.000    0.000  1
 55   1    1  1 0 0    54  16    79  576  576     0.00000   6.95189 1.17358e-003   903  1569  -3.90  -6.52   0.67  -19.01   15.75   61.94  1.100 -0.550 0 2 0 2  0.417  0.417 331.69    0.00     0.00    0.00   1   90.00     0    0    0   110 2400.0  1   1    8    0   0.000    0.000    0.000  1
 56   1    1  1 0 0    55  16    79  576  576     0.00000   6.95189 1.17358e-003   920  1600  -3.90  -6.52   0.67  -18.95   15.71   61.39  1.100 -0.550 0 2 0 2  0.417  0.417 331.69    0.00     0.00    0.00   1   90.00     0    0    0   110 2400.0  1   1    8    0   0.000    0.000    0.000  1
 57   1    1  1 0 0    56  16    79  576  576     0.00000   6.95189 1.17358e-003   980  1704  -3.90  -6.52   0.67  -18.89   15.67   60.85  1.100 -0.550 0 2 0 2  0.417  0.417 331.69    0.00     0.00    0.00   1   90.00     0    0    0   110 2400.0  1   1    8    0   0.000    0.000    0.000  1
 58   1    1  1 0 0    57  16    79  576  576     0.00000   6.95189 1.17358e-003   976  1697  -3.90  -6.52   0.67  -18.82   15.64   60.30  1.100 -0.550 0 2 0 2  0.417  0.417 331.69    0.00     0.00    0.00   1   90.00     0    0    0   110 2400.0  1   1    8    0   0.000    0.000    0.000  1
 59   1    1  1 0 0    58  16    79  576  576     0.00000   6.95189 1.17358e-003   979  1702  -3.90  -6.52   0.67  -18.76   15.60   59.76  1.100 -0.550 0 2 0 2  0.417  0.417 331.69    0.00     0.00    0.00   1   90.00     0    0    0   110 2400.0  1   1    8    0   0.000    0.000    0.000  1
 60   1    1  1 0 0    59  16    79  576  576     0.00000   6.95189 1.17358e-003   992  1724  -3.90  -6.52   0.67  -18.70   15.56   59.21  1.100 -0.550 0 2 0 2  0.417  0.417 331.69    0.00     0.00    0.00   1   90.00     0    0    0   110 2400.0  1   1    8    0   0.000    0.000    0.000  1
 61   1    1  1 0 0    60  16    79  576  576     0.00000   6.95189 1.17358e-003   983  1709  -3.90  -6.52   0.67  -18.64   15.53   58.67  1.100 -0.550 0 2 0 2  0.417  0.417 331.69    0.00     0.00    0.00   1   90.00     0    0    0   110 2400.0  1   1    8    0   0.000    0.000    0.000  1
 62   1    1  1 0 0    61  16    79  576  576     0.00000   6.95189 1.17358e-003  1019  1771  -3.90  -6.52   0.67  -18.57   15.49   58.12  1.100 -0.550 0 2 0 2  0.417  0.417 331.69    0.00     0.00    0.00   1   90.00     0    0    0   110 2400.0  1   1    8    0   0.000    0.000    0.000  1
 63   1    1  1 0 0    62  16    79  576  576     0.00000   6.95189 1.17358e-003  1016  1766  -3.90  -6.52   0.67  -18.51   15.45   57.57  1.100 -0.550 0 2 0 2  0.417  0.417 331.69    0.00     0.00    0.00   1   90.00     0    0    0   110 2400.0  1   1    8    0   0.000    0.000    0.000  1
 64   1    1  1 0 0    63  16    79  576  576     0.00000   6.95189 1.17358e-003  1029  1788  -3.90  -6.52   0.67  -18.45   15.42   57.03  1.100 -0.550 0 2 0 2  0.417  0.417 331.69    0.00     0.00    0.00   1   90.00     0    0    0   110 2400.0  1   1    8    0   0.000    0.000    0.000  1
 65   1    1  1 0 0    64  16    79  576  576     0.00000   6.95189 1.17358e-003  1046  1818  -3.90  -6.52   0.67  -18.38   15.38   56.48  1.100 -0.550 0 2 0 2  0.417  0.417 331.69    0.00     0.00    0.00   1   90.00     0    0    0   110 2400.0  1   1    8    0   0.000    0.000    0.000  1
 66   1    1  1 0 0    65  16    79  576  576     0.00000   6.95189 1.17358e-003  1028  1787  -3.90  -6.52   0.67  -18.32   15.35   55.94  1.100 -0.550 0 2 0 2  0.417  0.417 331.69    0.00     0.00    0.00   1   90.00     0    0    0   110 2400.0  1   1    8    0   0.000    0.000    0.000  1
 67   1    1  1 0 0    66  16    79  576  576     0.00000   6.95189 1.17358e-003  1037  1803  -3.90  -6.52   0.67  -18.26   15.31   55.39  1.100 -0.550 0 2 0 2  0.417  0.417 331.69    0.00     0.00    0.00   1   90.00     0    0    0   110 2400.0  1   1    8    0   0.000    0.000    0.000  1
 68   1    1  1 0 0    67  16    79  576  576     0.00000   6.95189 1.17358e-003  1046  1819  -3.90  -6.52   0.67  -18.20   15.27   54.85  1.100 -0.550 0 2 0 2  0.417  0.417 331.69    0.00     0.00    0.00   1   90.00     0    0    0   110 2400.0  1   1    8    0   0.000    0.000    0.000  1
 69   1    1  1 0 0    68  16    79  576  576     0.00000   6.95189 1.17358e-003  1062  1847  -3.90  -6.52   0.67  -18.13   15.24   54.30  1.100 -0.550 0 2 0 2  0.417  0.417 331.69    0.00     0.00    0.00   1   90.00     0    0    0   110 2400.0  1   1    8    0   0.000    0.000    0.000  1
 70   1    1  1 0 0    69  16    79  576  576     0.00000   6.95189 1.17358e-003  1078  1874  -3.90  -6.52   0.67  -18.07   15.20   53.76  1.100 -0.550 0 2 0 2  0.417  0.417 331.69    0.00     0.00    0.00   1   90.00     0    0    0   110 2400.0  1   1    8    0   0.000    0.000    0.000  1
 71   1    1  1 0 0    70  16    79  576  576     0.00000   6.95189 1.17358e-003  1103  1918  -3.90  -6.52   0.67  -18.01   15.16   53.21  1.100 -0.550 0 2 0 2  0.417  0.417 331.69    0.00     0.00    0.00   1   90.00     0    0    0   110 2400.0  1   1    8    0   0.000    0.000    0.000  1
 72   1    1  1 0 0    71  16    79  576  576     0.00000   6.95189 1.17358e-003  1121  1949  -3.90  -6.52   0.67  -17.94   15.13   52.67  1.100 -0.550 0 2 0 2  0.417  0.417 331.69    0.00     0.00    0.00   1   90.00     0    0    0   110 2400.0  1   1    8    0   0.000    0.000    0.000  1
 73   1    1  1 0 0    72  16    79  576  576     0.00000   6.95189 1.17358e-003  1140  1982  -3.90  -6.52   0.67  -17.88   15.09   52.12  1.100 -0.550 0 2 0 2  0.417  0.417 331.69    0.00     0.00    0.00   1   90.00     0    0    0   110 2400.0  1   1    8    0   0.000    0.000    0.000  1
 74   1    1  1 0 0    73  16    79  576  576     0.00000   6.95189 1.17358e-003  1143  1988  -3.90  -6.52   0.67  -17.82   15.05   51.58  1.100 -0.550 0 2 0 2  0.417  0.417 331.69    0.00     0.00    0.00   1   90.00     0    0    0   110 2400.0  1   1    8    0   0.000    0.000    0.000  1
 75   1    1  1 0 0    74  16    79  576  576     0.00000   6.95189 1.17358e-003  1155  2007  -3.90  -6.52   0.67  -17.76   15.02   51.03  1.100 -0.550 0 2 0 2  0.417  0.417 331.69    0.00     0.00    0.00   1   90.00     0    0    0   110 2400.0  1   1    8    0   0.000    0.000    0.000  1
 76   1    1  1 0 0    75  16    79  576  576     0.00000   6.95189 1.17358e-003  1164  2024  -3.90  -6.52   0.67  -17.69   14.98   50.49  1.100 -0.550 0 2 0 2  0.417  0.417 331.69    0.00     0.00    0.00   1   90.00     0    0    0   110 2400.0  1   1    8    0   0.000    0.000    0.000  1
 77   1    1  1 0 0    76  16    79  576  576     0.00000   6.95189 1.17358e-003  1164  2024  -3.90  -6.52   0.67  -17.63   14.94   49.94  1.100 -0.550 0 2 0 2  0.417  0.417 331.69    0.00     0.00    0.00   1   90.00     0    0    0   110 2400.0  1   1    8    0   0.000    0.000    0.000  1
 78   1    1  1 0 0    77  16    79  576  576     0.00000   6.95189 1.17358e-003  1169  2032  -3.90  -6.52   0.67  -17.57   14.91   49.40  1.100 -0.550 0 2 0 2  0.417  0.417 331.69    0.00     0.00    0.00   1   90.00     0    0    0   110 2400.0  1   1    8    0   0.000    0.000    0.000  1
 79   1    1  1 0 0    78  16    79  576  576     0.00000   6.95189 1.17358e-003  1198  2083  -3.90  -6.52   0.67  -17.50   14.87   48.85  1.100 -0.550 0 2 0 2  0.417  0.417 331.69    0.00     0.00    0.00   1   90.00     0    0    0   110 2400.0  1   1    8    0   0.000    0.000    0.000  1
 80   1    1  1 0 0    79  16    79  576  576     0.00000   6.95189 1.17358e-003  1209  2101  -3.90  -6.52   0.67  -17.44   14.84   48.31  1.100 -0.550 0 2 0 2  0.417  0.417 331.69    0.00     0.00    0.00   1   90.00     0    0    0   110 2400.0  1   1    8    0   0.000    0.000    0.000  1
 81   1    1  1 0 0    80  16    79  576  576     0.00000   6.95189 1.17358e-003  1207  2098  -3.90  -6.52   0.67  -17.38   14.80   47.76  1.100 -0.550 0 2 0 2  0.417  0.417 331.69    0.00     0.00    0.00   1   90.00     0    0    0   110 2400.0  1   1    8    0   0.000    0.000    0.000  1
 82   1    1  1 0 0    81  16    79  576  576     0.00000   6.95189 1.17358e-003  1216  2113  -3.90  -6.52   0.67  -17.32   14.76   47.22  1.100 -0.550 0 2 0 2  0.417  0.417 331.69    0.00     0.00    0.00   1   90.00     0    0    0   110 2400.0  1   1    8    0   0.000    0.000    0.000  1
 83   1    1  1 0 0    82  16    79  576  576     0.00000   6.95189 1.17358e-003  1202  2089  -3.90  -6.52   0.67  -17.25   14.73   46.67  1.100 -0.550 0 2 0 2  0.417  0.417 331.69    0.00     0.00    0.00   1   90.00     0    0    0   110 2400.0  1   1    8    0   0.000    0.000    0.000  1
 84   1    1  1 0 0    83  16    79  576  576     0.00000   6.95189 1.17358e-003  1188  2066  -3.90  -6.52   0.67  -17.19   14.69   46.13  1.100 -0.550 0 2 0 2  0.417  0.417 331.69    0.00     0.00    0.00   1   90.00     0    0    0   110 2400.0  1   1    8    0   0.000    0.000    0.000  1
