# === DATA DESCRIPTION FILE ======================================================
#
# CAUTION - Investigational device.
# Limited by Federal Law to investigational use.
#
#
# CLINICAL TRYOUT             Research image export tool     V4.2
#
# === GENERAL INFORMATION ========================================================
#
.    Protocol name                      :   WIP 3D FLAIR Sag UMich SENSE
.    Series Type                        :   Image   MRSERIES
.    Acquisition nr                     :   4
.    Reconstruction nr                  :   1
.    Scan Duration [sec]                :   528
.    Max. number of cardiac phases      :   1
.    Max. number of echoes              :   1
.    Max. number of slices/locations    :   327
.    Max. number of dynamics            :   1
.    Max. number of mixes               :   1
.    Patient position                   :   Head First Supine
.    Preparation direction              :   Anterior-Posterior
.    Technique                          :   TIR
.    Scan resolution  (x, y)            :   216  220
.    Scan mode                          :   3D
.    Repetition time [ms]               :   8000.000  
.    FOV (ap,fh,rl) [mm]                :   240.000  200.000  179.850
.    Water Fat shift [pixels]           :   0.858
.    Angulation midslice(ap,fh,rl)[degr]:   -3.061  -2.336  -0.705
.    Off Centre midslice(ap,fh,rl) [mm] :   -15.735  10.782  -4.293
.    Flow compensation <0=no 1=yes> ?   :   1
.    Presaturation     <0=no 1=yes> ?   :   0
.    Phase encoding velocity [cm/sec]   :   0.000000  0.000000  0.000000
.    MTC               <0=no 1=yes> ?   :   0
.    SPIR              <0=no 1=yes> ?   :   1
.    EPI factor        <0,1=no EPI>     :   1
.    Dynamic scan      <0=no 1=yes> ?   :   0
.    Diffusion         <0=no 1=yes> ?   :   0
.    Diffusion echo time [ms]           :   0.0000
.    Max. number of diffusion values    :   1
.    Max. number of gradient orients    :   1
.    Number of label types   <0=no ASL> :   0
#
# === PIXEL VALUES =============================================================
#  PV = pixel value in REC file, FP = floating point value, DV = displayed value on console
#  RS = rescale slope,           RI = rescale intercept,    SS = scale slope
#  DV = PV * RS + RI             FP = DV / (RS * SS)
#
# === IMAGE INFORMATION DEFINITION =============================================
#  The rest of this file contains ONE line per image, this line contains the following information:
#
#  slice number                             (integer)
#  echo number                              (integer)
#  dynamic scan number                      (integer)
#  cardiac phase number                     (integer)
#  image_type_mr                            (integer)
#  scanning sequence                        (integer)
#  index in REC file (in images)            (integer)
#  image pixel size (in bits)               (integer)
#  scan percentage                          (integer)
#  recon resolution (x y)                   (2*integer)
#  rescale intercept                        (float)
#  rescale slope                            (float)
#  scale slope                              (float)
#  window center                            (integer)
#  window width                             (integer)
#  image angulation (ap,fh,rl in degrees )  (3*float)
#  image offcentre (ap,fh,rl in mm )        (3*float)
#  slice thickness (in mm )                 (float)
#  slice gap (in mm )                       (float)
#  image_display_orientation                (integer)
#  slice orientation ( TRA/SAG/COR )        (integer)
#  fmri_status_indication                   (integer)
#  image_type_ed_es  (end diast/end syst)   (integer)
#  pixel spacing (x,y) (in mm)              (2*float)
#  echo_time                                (float)
#  dyn_scan_begin_time                      (float)
#  trigger_time                             (float)
#  diffusion_b_factor                       (float)
#  number of averages                       (integer)
#  image_flip_angle (in degrees)            (float)
#  cardiac frequency   (bpm)                (integer)
#  minimum RR-interval (in ms)              (integer)
#  maximum RR-interval (in ms)              (integer)
#  TURBO factor  <0=no turbo>               (integer)
#  Inversion delay (in ms)                  (float)
#  diffusion b value number    (imagekey!)  (integer)
#  gradient orientation number (imagekey!)  (integer)
#  contrast type                            (string)
#  diffusion anisotropy type                (string)
#  diffusion (ap, fh, rl)                   (3*float)
#  label type (ASL)            (imagekey!)  (integer)
#
# === IMAGE INFORMATION ==========================================================
#  sl ec  dyn ph ty    idx pix scan% rec size                (re)scale              window        angulation              offcentre        thick   gap   info      spacing     echo     dtime   ttime    diff  avg  flip    freq   RR-int  turbo delay b grad cont anis         diffusion       L.ty

  1   1    1  1 0 0     0  16    79  576  576     0.00000   5.60122 1.20531e-003    13    23  -3.06  -2.34  -0.70  -19.33   15.61   85.16  1.100 -0.550 0 2 0 2  0.417  0.417 330.52    0.00     0.00    0.00   1   90.00     0    0    0   110 2400.0  1   1    8    0   0.000    0.000    0.000  1
  2   1    1  1 0 0     1  16    79  576  576     0.00000   5.60122 1.20531e-003    19    33  -3.06  -2.34  -0.70  -19.31   15.58   84.61  1.100 -0.550 0 2 0 2  0.417  0.417 330.52    0.00     0.00    0.00   1   90.00     0    0    0   110 2400.0  1   1    8    0   0.000    0.000    0.000  1
  3   1    1  1 0 0     2  16    79  576  576     0.00000   5.60122 1.20531e-003    17    30  -3.06  -2.34  -0.70  -19.29   15.55   84.06  1.100 -0.550 0 2 0 2  0.417  0.417 330.52    0.00     0.00    0.00   1   90.00     0    0    0   110 2400.0  1   1    8    0   0.000    0.000    0.000  1
  4   1    1  1 0 0     3  16    79  576  576     0.00000   5.60122 1.20531e-003    15    26  -3.06  -2.34  -0.70  -19.26   15.52   83.51  1.100 -0.550 0 2 0 2  0.417  0.417 330.52    0.00     0.00    0.00   1   90.00     0    0    0   110 2400.0  1   1    8    0   0.000    0.000    0.000  1
  5   1    1  1 0 0     4  16    79  576  576     0.00000   5.60122 1.20531e-003    14    24  -3.06  -2.34  -0.70  -19.24   15.49   82.96  1.100 -0.550 0 2 0 2  0.417  0.417 330.52    0.00     0.00    0.00   1   90.00     0    0    0   110 2400.0  1   1    8    0   0.000    0.000    0.000  1
  6   1    1  1 0 0     5  16    79  576  576     0.00000   5.60122 1.20531e-003    14    24  -3.06  -2.34  -0.70  -19.22   15.46   82.41  1.100 -0.550 0 2 0 2  0.417  0.417 330.52    0.00     0.00    0.00   1   90.00     0    0    0   110 2400.0  1   1    8    0   0.000    0.000    0.000  1
  7   1    1  1 0 0     6  16    79  576  576     0.00000   5.60122 1.20531e-003    14    25  -3.06  -2.34  -0.70  -19.20   15.43   81.86  1.100 -0.550 0 2 0 2  0.417  0.417 330.52    0.00     0.00    0.00   1   90.00     0    0    0   110 2400.0  1   1    8    0   0.000    0.000    0.000  1
  8   1    1  1 0 0     7  16    79  576  576     0.00000   5.60122 1.20531e-003    17    29  -3.06  -2.34  -0.70  -19.18   15.40   81.31  1.100 -0.550 0 2 0 2  0.417  0.417 330.52    0.00     0.00    0.00   1   90.00     0    0    0   110 2400.0  1   1    8    0   0.000    0.000    0.000  1
  9   1    1  1 0 0     8  16    79  576  576     0.00000   5.60122 1.20531e-003    18    31  -3.06  -2.34  -0.70  -19.15   15.37   80.76  1.100 -0.550 0 2 0 2  0.417  0.417 330.52    0.00     0.00    0.00   1   90.00     0    0    0   110 2400.0  1   1    8    0   0.000    0.000    0.000  1
 10   1    1  1 0 0     9  16    79  576  576     0.00000   5.60122 1.20531e-003    20    35  -3.06  -2.34  -0.70  -19.13   15.34   80.22  1.100 -0.550 0 2 0 2  0.417  0.417 330.52    0.00     0.00    0.00   1   90.00     0    0    0   110 2400.0  1   1    8    0   0.000    0.000    0.000  1
 11   1    1  1 0 0    10  16    79  576  576     0.00000   5.60122 1.20531e-003    22    38  -3.06  -2.34  -0.70  -19.11   15.31   79.67  1.100 -0.550 0 2 0 2  0.417  0.417 330.52    0.00     0.00    0.00   1   90.00     0    0    0   110 2400.0  1   1    8    0   0.000    0.000    0.000  1
 12   1    1  1 0 0    11  16    79  576  576     0.00000   5.60122 1.20531e-003    25    43  -3.06  -2.34  -0.70  -19.09   15.28   79.12  1.100 -0.550 0 2 0 2  0.417  0.417 330.52    0.00     0.00    0.00   1   90.00     0    0    0   110 2400.0  1   1    8    0   0.000    0.000    0.000  1
 13   1    1  1 0 0    12  16    79  576  576     0.00000   5.60122 1.20531e-003    27    48  -3.06  -2.34  -0.70  -19.07   15.25   78.57  1.100 -0.550 0 2 0 2  0.417  0.417 330.52    0.00     0.00    0.00   1   90.00     0    0    0   110 2400.0  1   1    8    0   0.000    0.000    0.000  1
 14   1    1  1 0 0    13  16    79  576  576     0.00000   5.60122 1.20531e-003    30    52  -3.06  -2.34  -0.70  -19.04   15.22   78.02  1.100 -0.550 0 2 0 2  0.417  0.417 330.52    0.00     0.00    0.00   1   90.00     0    0    0   110 2400.0  1   1    8    0   0.000    0.000    0.000  1
 15   1    1  1 0 0    14  16    79  576  576     0.00000   5.60122 1.20531e-003    37    64  -3.06  -2.34  -0.70  -19.02   15.19   77.47  1.100 -0.550 0 2 0 2  0.417  0.417 330.52    0.00     0.00    0.00   1   90.00     0    0    0   110 2400.0  1   1    8    0   0.000    0.000    0.000  1
 16   1    1  1 0 0    15  16    79  576  576     0.00000   5.60122 1.20531e-003    49    85  -3.06  -2.34  -0.70  -19.00   15.17   76.92  1.100 -0.550 0 2 0 2  0.417  0.417 330.52    0.00     0.00    0.00   1   90.00     0    0    0   110 2400.0  1   1    8    0   0.000    0.000    0.000  1
 17   1    1  1 0 0    16  16    79  576  576     0.00000   5.60122 1.20531e-003    79   137  -3.06  -2.34  -0.70  -18.98   15.14   76.37  1.100 -0.550 0 2 0 2  0.417  0.417 330.52    0.00     0.00    0.00   1   90.00     0    0    0   110 2400.0  1   1    8    0   0.000    0.000    0.000  1
 18   1    1  1 0 0    17  16    79  576  576     0.00000   5.60122 1.20531e-003   156   271  -3.06  -2.34  -0.70  -18.96   15.11   75.83  1.100 -0.550 0 2 0 2  0.417  0.417 330.52    0.00     0.00    0.00   1   90.00     0    0    0   110 2400.0  1   1    8    0   0.000    0.000    0.000  1
 19   1    1  1 0 0    18  16    79  576  576     0.00000   5.60122 1.20531e-003   241   419  -3.06  -2.34  -0.70  -18.93   15.08   75.28  1.100 -0.550 0 2 0 2  0.417  0.417 330.52    0.00     0.00    0.00   1   90.00     0    0    0   110 2400.0  1   1    8    0   0.000    0.000    0.000  1
 20   1    1  1 0 0    19  16    79  576  576     0.00000   5.60122 1.20531e-003   279   485  -3.06  -2.34  -0.70  -18.91   15.05   74.73  1.100 -0.550 0 2 0 2  0.417  0.417 330.52    0.00     0.00    0.00   1   90.00     0    0    0   110 2400.0  1   1    8    0   0.000    0.000    0.000  1
 21   1    1  1 0 0    20  16    79  576  576     0.00000   5.60122 1.20531e-003   284   494  -3.06  -2.34  -0.70  -18.89   15.02   74.18  1.100 -0.550 0 2 0 2  0.417  0.417 330.52    0.00     0.00    0.00   1   90.00     0    0    0   110 2400.0  1   1    8    0   0.000    0.000    0.000  1
 22   1    1  1 0 0    21  16    79  576  576     0.00000   5.60122 1.20531e-003   291   505  -3.06  -2.34  -0.70  -18.87   14.99   73.63  1.100 -0.550 0 2 0 2  0.417  0.417 330.52    0.00     0.00    0.00   1   90.00     0    0    0   110 2400.0  1   1    8    0   0.000    0.000    0.000  1
 23   1    1  1 0 0    22  16    79  576  576     0.00000   5.60122 1.20531e-003   268   467  -3.06  -2.34  -0.70  -18.85   14.96   73.08  1.100 -0.550 0 2 0 2  0.417  0.417 330.52    0.00     0.00    0.00   1   90.00     0    0    0   110 2400.0  1   1    8    0   0.000    0.000    0.000  1
 24   1    1  1 0 0    23  16    79  576  576     0.00000   5.60122 1.20531e-003   255   443  -3.06  -2.34  -0.70  -18.82   14.93   72.53  1.100 -0.550 0 2 0 2  0.417  0.417 330.52    0.00     0.00    0.00   1   90.00     0    0    0   110 2400.0  1   1    8    0   0.000    0.000    0.000  1
 25   1    1  1 0 0    24  16    79  576  576     0.00000   5.60122 1.20531e-003   273   474  -3.06  -2.34  -0.70  -18.80   14.90   71.98  1.100 -0.550 0 2 0 2  0.417  0.417 330.52    0.00     0.00    0.00   1   90.00     0    0    0   110 2400.0  1   1    8    0   0.000    0.000    0.000  1
 26   1    1  1 0 0    25  16    79  576  576     0.00000   5.60122 1.20531e-003   280   487  -3.06  -2.34  -0.70  -18.78   14.87   71.44  1.100 -0.550 0 2 0 2  0.417  0.417 330.52    0.00     0.00    0.00   1   90.00     0    0    0   110 2400.0  1   1    8    0   0.000    0.000    0.000  1
 27   1    1  1 0 0    26  16    79  576  576     0.00000   5.60122 1.20531e-003   266   462  -3.06  -2.34  -0.70  -18.76   14.84   70.89  1.100 -0.550 0 2 0 2  0.417  0.417 330.52    0.00     0.00    0.00   1   90.00     0    0    0   110 2400.0  1   1    8    0   0.000    0.000    0.000  1
 28   1    1  1 0 0    27  16    79  576  576     0.00000   5.60122 1.20531e-003   285   495  -3.06  -2.34  -0.70  -18.74   14.81   70.34  1.100 -0.550 0 2 0 2  0.417  0.417 330.52    0.00     0.00    0.00   1   90.00     0    0    0   110 2400.0  1   1    8    0   0.000    0.000    0.000  1
 29   1    1  1 0 0    28  16    79  576  576     0.00000   5.60122 1.20531e-003   303   526  -3.06  -2.34  -0.70  -18.71   14.78   69.79  1.100 -0.550 0 2 0 2  0.417  0.417 330.52    0.00     0.00    0.00   1   90.00     0    0    0   110 2400.0  1   1    8    0   0.000    0.000    0.000  1
 30   1    1  1 0 0    29  16    79  576  576     0.00000   5.60122 1.20531e-003   331   576  -3.06  -2.34  -0.70  -18.69   14.75   69.24  1.100 -0.550 0 2 0 2  0.417  0.417 330.52    0.00     0.00    0.00   1   90.00     0    0    0   110 2400.0  1   1    8    0   0.000    0.000    0.000  1
 31   1    1  1 0 0    30  16    79  576  576     0.00000   5.60122 1.20531e-003   351   610  -3.06  -2.34  -0.70  -18.67   14.72   68.69  1.100 -0.550 0 2 0 2  0.417  0.417 330.52    0.00     0.00    0.00   1   90.00     0    0    0   110 2400.0  1   1    8    0   0.000    0.000    0.000  1
 32   1    1  1 0 0    31  16    79  576  576     0.00000   5.60122 1.20531e-003   348   604  -3.06  -2.34  -0.70  -18.65   14.69   68.14  1.100 -0.550 0 2 0 2  0.417  0.417 330.52    0.00     0.00    0.00   1   90.00     0    0    0   110 2400.0  1   1    8    0   0.000    0.000    0.000  1
 33   1    1  1 0 0    32  16    79  576  576     0.00000   5.60122 1.20531e-003   353   614  -3.06  -2.34  -0.70  -18.62   14.66   67.59  1.100 -0.550 0 2 0 2  0.417  0.417 330.52    0.00     0.00    0.00   1   90.00     0    0    0   110 2400.0  1   1    8    0   0.000    0.000    0.000  1
 34   1    1  1 0 0    33  16    79  576  576     0.00000   5.60122 1.20531e-003   382   664  -3.06  -2.34  -0.70  -18.60   14.63   67.05  1.100 -0.550 0 2 0 2  0.417  0.417 330.52    0.00     0.00    0.00   1   90.00     0    0    0   110 2400.0  1   1    8    0   0.000    0.000    0.000  1
 35   1    1  1 0 0    34  16    79  576  576     0.00000   5.60122 1.20531e-003   416   723  -3.06  -2.34  -0.70  -18.58   14.60   66.50  1.100 -0.550 0 2 0 2  0.417  0.417 330.52    0.00     0.00    0.00   1   90.00     0    0    0   110 2400.0  1   1    8    0   0.000    0.000    0.000  1
 36   1    1  1 0 0    35  16    79  576  576     0.00000   5.60122 1.20531e-003   459   798  -3.06  -2.34  -0.70  -18.56   14.57   65.95  1.100 -0.550 0 2 0 2  0.417  0.417 330.52    0.00     0.00    0.00   1   90.00     0    0    0   110 2400.0  1   1    8    0   0.000    0.000    0.000  1
 37   1    1  1 0 0    36  16    79  576  576     0.00000   5.60122 1.20531e-003   499   868  -3.06  -2.34  -0.70  -18.54   14.54   65.40  1.100 -0.550 0 2 0 2  0.417  0.417 330.52    0.00     0.00    0.00   1   90.00     0    0    0   110 2400.0  1   1    8    0   0.000    0.000    0.000  1
 38   1    1  1 0 0    37  16    79  576  576     0.00000   5.60122 1.20531e-003   504   876  -3.06  -2.34  -0.70  -18.51   14.51   64.85  1.100 -0.550 0 2 0 2  0.417  0.417 330.52    0.00     0.00    0.00   1   90.00     0    0    0   110 2400.0  1   1    8    0   0.000    0.000    0.000  1
 39   1    1  1 0 0    38  16    79  576  576     0.00000   5.60122 1.20531e-003   522   907  -3.06  -2.34  -0.70  -18.49   14.48   64.30  1.100 -0.550 0 2 0 2  0.417  0.417 330.52    0.00     0.00    0.00   1   90.00     0    0    0   110 2400.0  1   1    8    0   0.000    0.000    0.000  1
 40   1    1  1 0 0    39  16    79  576  576     0.00000   5.60122 1.20531e-003   532   924  -3.06  -2.34  -0.70  -18.47   14.45   63.75  1.100 -0.550 0 2 0 2  0.417  0.417 330.52    0.00     0.00    0.00   1   90.00     0    0    0   110 2400.0  1   1    8    0   0.000    0.000    0.000  1
 41   1    1  1 0 0    40  16    79  576  576     0.00000   5.60122 1.20531e-003   565   982  -3.06  -2.34  -0.70  -18.45   14.42   63.20  1.100 -0.550 0 2 0 2  0.417  0.417 330.52    0.00     0.00    0.00   1   90.00     0    0    0   110 2400.0  1   1    8    0   0.000    0.000    0.000  1
 42   1    1  1 0 0    41  16    79  576  576     0.00000   5.60122 1.20531e-003   594  1032  -3.06  -2.34  -0.70  -18.43   14.40   62.66  1.100 -0.550 0 2 0 2  0.417  0.417 330.52    0.00     0.00    0.00   1   90.00     0    0    0   110 2400.0  1   1    8    0   0.000    0.000    0.000  1
 43   1    1  1 0 0    42  16    79  576  576     0.00000   5.60122 1.20531e-003   618  1075  -3.06  -2.34  -0.70  -18.40   14.37   62.11  1.100 -0.550 0 2 0 2  0.417  0.417 330.52    0.00     0.00    0.00   1   90.00     0    0    0   110 2400.0  1   1    8    0   0.000    0.000    0.000  1
 44   1    1  1 0 0    43  16    79  576  576     0.00000   5.60122 1.20531e-003   626  1089  -3.06  -2.34  -0.70  -18.38   14.34   61.56  1.100 -0.550 0 2 0 2  0.417  0.417 330.52    0.00     0.00    0.00   1   90.00     0    0    0   110 2400.0  1   1    8    0   0.000    0.000    0.000  1
 45   1    1  1 0 0    44  16    79  576  576     0.00000   5.60122 1.20531e-003   649  1128  -3.06  -2.34  -0.70  -18.36   14.31   61.01  1.100 -0.550 0 2 0 2  0.417  0.417 330.52    0.00     0.00    0.00   1   90.00     0    0    0   110 2400.0  1   1    8    0   0.000    0.000    0.000  1
 46   1    1  1 0 0    45  16    79  576  576     0.00000   5.60122 1.20531e-003   681  1183  -3.06  -2.34  -0.70  -18.34   14.28   60.46  1.100 -0.550 0 2 0 2  0.417  0.417 330.52    0.00     0.00    0.00   1   90.00     0    0    0   110 2400.0  1   1    8    0   0.000    0.000    0.000  1
 47   1    1  1 0 0    46  16    79  576  576     0.00000   5.60122 1.20531e-003   718  1248  -3.06  -2.34  -0.70  -18.32   14.25   59.91  1.100 -0.550 0 2 0 2  0.417  0.417 330.52    0.00     0.00    0.00   1   90.00     0    0    0   110 2400.0  1   1    8    0   0.000    0.000    0.000  1
 48   1    1  1 0 0    47  16    79  576  576     0.00000   5.60122 1.20531e-003   737  1281  -3.06  -2.34  -0.70  -18.29   14.22   59.36  1.100 -0.550 0 2 0 2  0.417  0.417 330.52    0.00     0.00    0.00   1   90.00     0    0    0   110 2400.0  1   1    8    0   0.000    0.000    0.000  1
 49   1    1  1 0 0    48  16    79  576  576     0.00000   5.60122 1.20531e-003   765  1329  -3.06  -2.34  -0.70  -18.27   14.19   58.81  1.100 -0.550 0 2 0 2  0.417  0.417 330.52    0.00     0.00    0.00   1   90.00     0    0    0   110 2400.0  1   1    8    0   0.000    0.000    0.000  1
 50   1    1  1 0 0    49  16    79  576  576     0.00000   5.60122 1.20531e-003   789  1372  -3.06  -2.34  -0.70  -18.25   14.16   58.27  1.100 -0.550 0 2 0 2  0.417  0.417 330.52    0.00     0.00    0.00   1   90.00     0    0    0   110 2400.0  1   1    8    0   0.000    0.000    0.000  1
 51   1    1  1 0 0    50  16    79  576  576     0.00000   5.60122 1.20531e-003   813  1413  -3.06  -2.34  -0.70  -18.23   14.13   57.72  1.100 -0.550 0 2 0 2  0.417  0.417 330.52    0.00     0.00    0.00   1   90.00     0    0    0   110 2400.0  1   1    8    0   0.000    0.000    0.000  1
 52   1    1  1 0 0    51  16    79  576  576     0.00000   5.60122 1.20531e-003   833  1447  -3.06  -2.34  -0.70  -18.21   14.10   57.17  1.100 -0.550 0 2 0 2  0.417  0.417 330.52    0.00     0.00    0.00   1   90.00     0    0    0   110 2400.0  1   1    8    0   0.000    0.000    0.000  1
 53   1    1  1 0 0    52  16    79  576  576     0.00000   5.60122 1.20531e-003   858  1491  -3.06  -2.34  -0.70  -18.18   14.07   56.62  1.100 -0.550 0 2 0 2  0.417  0.417 330.52    0.00     0.00    0.00   1   90.00     0    0    0   110 2400.0  1   1    8    0   0.000    0.000    0.000  1
 54   1    1  1 0 0    53  16    79  576  576     0.00000   5.60122 1.20531e-003   871  1514  -3.06  -2.34  -0.70  -18.16   14.04   56.07  1.100 -0.550 0 2 0 2  0.417  0.417 330.52    0.00     0.00    0.00   1   90.00     0    0    0   110 2400.0  1   1    8    0   0.000    0.000    0.000  1
 55   1    1  1 0 0    54  16    79  576  576     0.00000   5.60122 1.20531e-003   893  1552  -3.06  -2.34  -0.70  -18.14   14.01   55.52  1.100 -0.550 0 2 0 2  0.417  0.417 330.52    0.00     0.00    0.00   1   90.00     0    0    0   110 2400.0  1   1    8    0   0.000    0.000    0.000  1
 56   1    1  1 0 0    55  16    79  576  576     0.00000   5.60122 1.20531e-003   914  1588  -3.06  -2.34  -0.70  -18.12   13.98   54.97  1.100 -0.550 0 2 0 2  0.417  0.417 330.52    0.00     0.00    0.00   1   90.00     0    0    0   110 2400.0  1   1    8    0   0.000    0.000    0.000  1
 57   1    1  1 0 0    56  16    79  576  576     0.00000   5.60122 1.20531e-003   937  1629  -3.06  -2.34  -0.70  -18.10   13.95   54.42  1.100 -0.550 0 2 0 2  0.417  0.417 330.52    0.00     0.00    0.00   1   90.00     0    0    0   110 2400.0  1   1    8    0   0.000    0.000    0.000  1
 58   1    1  1 0 0    57  16    79  576  576     0.00000   5.60122 1.20531e-003   958  1665  -3.06  -2.34  -0.70  -18.07   13.92   53.88  1.100 -0.550 0 2 0 2  0.417  0.417 330.52    0.00     0.00    0.00   1   90.00     0    0    0   110 2400.0  1   1    8    0   0.000    0.000    0.000  1
 59   1    1  1 0 0    58  16    79  576  576     0.00000   5.60122 1.20531e-003   979  1702  -3.06  -2.34  -0.70  -18.05   13.89   53.33  1.100 -0.550 0 2 0 2  0.417  0.417 330.52    0.00     0.00    0.00   1   90.00     0    0    0   110 2400.0  1   1    8    0   0.000    0.000    0.000  1
 60   1    1  1 0 0    59  16    79  576  576     0.00000   5.60122 1.20531e-003   977  1699  -3.06  -2.34  -0.70  -18.03   13.86   52.78  1.100 -0.550 0 2 0 2  0.417  0.417 330.52    0.00     0.00    0.00   1   90.00     0    0    0   110 2400.0  1   1    8    0   0.000    0.000    0.000  1
 61   1    1  1 0 0    60  16    79  576  576     0.00000   5.60122 1.20531e-003   993  1726  -3.06  -2.34  -0.70  -18.01   13.83   52.23  1.100 -0.550 0 2 0 2  0.417  0.417 330.52    0.00     0.00    0.00   1   90.00     0    0    0   110 2400.0  1   1    8    0   0.000    0.000    0.000  1
 62   1    1  1 0 0    61  16    79  576  576     0.00000   5.60122 1.20531e-003  1006  1749  -3.06  -2.34  -0.70  -17.99   13.80   51.68  1.100 -0.550 0 2 0 2  0.417  0.417 330.52    0.00     0.00    0.00   1   90.00     0    0    0   110 2400.0  1   1    8    0   0.000    0.000    0.000  1
 63   1    1  1 0 0    62  16    79  576  576     0.00000   5.60122 1.20531e-003  1032  1794  -3.06  -2.34  -0.70  -17.96   13.77   51.13  1.100 -0.550 0 2 0 2  0.417  0.417 330.52    0.00     0.00    0.00   1   90.00     0    0    0   110 2400.0  1   1    8    0   0.000    0.000    0.000  1
 64   1    1  1 0 0    63  16    79  576  576     0.00000   5.60122 1.20531e-003  1054  1832  -3.06  -2.34  -0.70  -17.94   13.74   50.58  1.100 -0.550 0 2 0 2  0.417  0.417 330.52    0.00     0.00    0.00   1   90.00     0    0    0   110 2400.0  1   1    8    0   0.000    0.000    0.000  1
 65   1    1  1 0 0    64  16    79  576  576     0.00000   5.60122 1.20531e-003  1060  1843  -3.06  -2.34  -0.70  -17.92   13.71   50.03  1.100 -0.550 0 2 0 2  0.417  0.417 330.52    0.00     0.00    0.00   1   90.00     0    0    0   110 2400.0  1   1    8    0   0.000    0.000    0.000  1
 66   1    1  1 0 0    65  16    79  576  576     0.00000   5.60122 1.20531e-003  1050  1826  -3.06  -2.34  -0.70  -17.90   13.68   49.49  1.100 -0.550 0 2 0 2  0.417  0.417 330.52    0.00     0.00    0.00   1   90.00     0    0    0   110 2400.0  1   1    8    0   0.000    0.000    0.000  1
 67   1    1  1 0 0    66  16    79  576  576     0.00000   5.60122 1.20531e-003  1055  1834  -3.06  -2.34  -0.70  -17.87   13.65   48.94  1.100 -0.550 0 2 0 2  0.417  0.417 330.52    0.00     0.00    0.00   1   90.00     0    0    0   110 2400.0  1   1    8    0   0.000    0.000    0.000  1
 68   1    1  1 0 0    67  16    79  576  576     0.00000   5.60122 1.20531e-003  1063  1848  -3.06  -2.34  -0.70  -17.85   13.63   48.39  1.100 -0.550 0 2 0 2  0.417  0.417 330.52    0.00     0.00    0.00   1   90.00     0    0    0   110 2400.0  1   1    8    0   0.000    0.000    0.000  1
 69   1    1  1 0 0    68  16    79  576  576     0.00000   5.60122 1.20531e-003  1070  1860  -3.06  -2.34  -0.70  -17.83   13.60   47.84  1.100 -0.550 0 2 0 2  0.417  0.417 330.52    0.00     0.00    0.00   1   90.00     0    0    0   110 2400.0  1   1    8    0   0.000    0.000    0.000  1
 70   1    1  1 0 0    69  16    79  576  576     0.00000   5.60122 1.20531e-003  1076  1871  -3.06  -2.34  -0.70  -17.81   13.57   47.29  1.100 -0.550 0 2 0 2  0.417  0.417 330.52    0.00     0.00    0.00   1   90.00     0    0    0   110 2400.0  1   1    8    0   0.000    0.000    0.000  1
 71   1    1  1 0 0    70  16    79  576  576     0.00000   5.60122 1.20531e-003  1077  1873  -3.06  -2.34  -0.70  -17.79   13.54   46.74  1.100 -0.550 0 2 0 2  0.417  0.417 330.52    0.00     0.00    0.00   1   90.00     0    0    0   110 2400.0  1   1    8    0   0.000    0.000    0.000  1
 72   1    1  1 0 0    71  16    79  576  576     0.00000   5.60122 1.20531e-003  1077  1873  -3.06  -2.34  -0.70  -17.76   13.51   46.19  1.100 -0.550 0 2 0 2  0.417  0.417 330.52    0.00     0.00    0.00   1   90.00     0    0    0   110 2400.0  1   1    8    0   0.000    0.000    0.000  1
 73   1    1  1 0 0    72  16    79  576  576     0.00000   5.60122 1.20531e-003  1091  1897  -3.06  -2.34  -0.70  -17.74   13.48   45.64  1.100 -0.550 0 2 0 2  0.417  0.417 330.52    0.00     0.00    0.00   1   90.00     0    0    0   110 2400.0  1   1    8    0   0.000    0.000    0.000  1
 74   1    1  1 0 0    73  16    79  576  576     0.00000   5.60122 1.20531e-003  1094  1902  -3.06  -2.34  -0.70  -17.72   13.45   45.10  1.100 -0.550 0 2 0 2  0.417  0.417 330.52    0.00     0.00    0.00   1   90.00     0    0    0   110 2400.0  1   1    8    0   0.000    0.000    0.000  1
 75   1    1  1 0 0    74  16    79  576  576     0.00000   5.60122 1.20531e-003  1114  1937  -3.06  -2.34  -0.70  -17.70   13.42   44.55  1.100 -0.550 0 2 0 2  0.417  0.417 330.52    0.00     0.00    0.00   1   90.00     0    0    0   110 2400.0  1   1    8    0   0.000    0.000    0.000  1
 76   1    1  1 0 0    75  16    79  576  576     0.00000   5.60122 1.20531e-003  1114  1936  -3.06  -2.34  -0.70  -17.68   13.39   44.00  1.100 -0.550 0 2 0 2  0.417  0.417 330.52    0.00     0.00    0.00   1   90.00     0    0    0   110 2400.0  1   1    8    0   0.000    0.000    0.000  1
 77   1    1  1 0 0    76  16    79  576  576     0.00000   5.60122 1.20531e-003  1112  1933  -3.06  -2.34  -0.70  -17.65   13.36   43.45  1.100 -0.550 0 2 0 2  0.417  0.417 330.52    0.00     0.00    0.00   1   90.00     0    0    0   110 2400.0  1   1    8    0   0.000    0.000    0.000  1
 78   1    1  1 0 0    77  16    79  576  576     0.00000   5.60122 1.20531e-003  1105  1920  -3.06  -2.34  -0.70  -17.63   13.33   42.90  1.100 -0.550 0 2 0 2  0.417  0.417 330.52    0.00     0.00    0.00   1   90.00     0    0    0   110 2400.0  1   1    8    0   0.000    0.000    0.000  1
 79   1    1  1 0 0    78  16    79  576  576     0.00000   5.60122 1.20531e-003  1104  1919  -3.06  -2.34  -0.70  -17.61   13.30   42.35  1.100 -0.550 0 2 0 2  0.417  0.417 330.52    0.00     0.00    0.00   1   90.00     0    0    0   110 2400.0  1   1    8    0   0.000    0.000    0.000  1
 80   1    1  1 0 0    79  16    79  576  576     0.00000   5.60122 1.20531e-003  1124  1953  -3.06  -2.34  -0.70  -17.59   13.27   41.80  1.100 -0.550 0 2 0 2  0.417  0.417 330.52    0.00     0.00    0.00   1   90.00     0    0    0   110 2400.0  1   1    8    0   0.000    0.000    0.000  1
 81   1    1  1 0 0    80  16    79  576  576     0.00000   5.60122 1.20531e-003  1143  1987  -3.06  -2.34  -0.70  -17.57   13.24   41.25  1.100 -0.550 0 2 0 2  0.417  0.417 330.52    0.00     0.00    0.00   1   90.00     0    0    0   110 2400.0  1   1    8    0   0.000    0.000    0.000  1
 82   1    1  1 0 0    81  16    79  576  576     0.00000   5.60122 1.20531e-003  1153  2004  -3.06  -2.34  -0.70  -17.54   13.21   40.71  1.100 -0.550 0 2 0 2  0.417  0.417 330.52    0.00     0.00    0.00   1   90.00     0    0    0   110 2400.0  1   1    8    0   0.000    0.000    0.000  1
 83   1    1  1 0 0    82  16    79  576  576     0.00000   5.60122 1.20531e-003  1155  2008  -3.06  -2.34  -0.70  -17.52   13.18   40.16  1.100 -0.550 0 2 0 2  0.417  0.417 330.52    0.00     0.00    0.00   1   90.00     0    0    0   110 2400.0  1   1    8    0   0.000    0.000    0.000  1
 84   1    1  1 0 0    83  16    79  576  576     0.00000   5.60122 1.20531e-003  1161  2018  -3.06  -2.34  -0.70  -17.50   13.15   39.61  1.100 -0.550 0 2 0 2  0.417  0.417 330.52    0.00     0.00    0.00   1   90.00     0    0    0   110 2400.0  1   1    8    0   0.000    0.000    0.000  1
