# === DATA DESCRIPTION FILE ======================================================
#
# CAUTION - Investigational device.
# Limited by Federal Law to investigational use.
#
#
# CLINICAL TRYOUT             Research image export tool     V4.2
#
# === GENERAL INFORMATION ========================================================
#
.    Protocol name                      :   WIP MPrageADNIsag SENSE
.    Series Type                        :   Image   MRSERIES
.    Acquisition nr                     :   3
.    Reconstruction nr                  :   1
.    Scan Duration [sec]                :   356
.    Max. number of cardiac phases      :   1
.    Max. number of echoes              :   1
.    Max. number of slices/locations    :   170
.    Max. number of dynamics            :   1
.    Max. number of mixes               :   1
.    Patient position                   :   Head First Supine
.    Preparation direction              :   Anterior-Posterior
.    Technique                          :   T1TFE
.    Scan resolution  (x, y)            :   256  256
.    Scan mode                          :   3D
.    Repetition time [ms]               :   6.790  
.    FOV (ap,fh,rl) [mm]                :   240.000  256.000  204.000
.    Water Fat shift [pixels]           :   1.802
.    Angulation midslice(ap,fh,rl)[degr]:   -3.061  -2.336  -0.705
.    Off Centre midslice(ap,fh,rl) [mm] :   -15.735  10.782  -4.293
.    Flow compensation <0=no 1=yes> ?   :   0
.    Presaturation     <0=no 1=yes> ?   :   0
.    Phase encoding velocity [cm/sec]   :   0.000000  0.000000  0.000000
.    MTC               <0=no 1=yes> ?   :   0
.    SPIR              <0=no 1=yes> ?   :   0
.    EPI factor        <0,1=no EPI>     :   1
.    Dynamic scan      <0=no 1=yes> ?   :   0
.    Diffusion         <0=no 1=yes> ?   :   0
.    Diffusion echo time [ms]           :   0.0000
.    Max. number of diffusion values    :   1
.    Max. number of gradient orients    :   1
.    Number of label types   <0=no ASL> :   0
#
# === PIXEL VALUES =============================================================
#  PV = pixel value in REC file, FP = floating point value, DV = displayed value on console
#  RS = rescale slope,           RI = rescale intercept,    SS = scale slope
#  DV = PV * RS + RI             FP = DV / (RS * SS)
#
# === IMAGE INFORMATION DEFINITION =============================================
#  The rest of this file contains ONE line per image, this line contains the following information:
#
#  slice number                             (integer)
#  echo number                              (integer)
#  dynamic scan number                      (integer)
#  cardiac phase number                     (integer)
#  image_type_mr                            (integer)
#  scanning sequence                        (integer)
#  index in REC file (in images)            (integer)
#  image pixel size (in bits)               (integer)
#  scan percentage                          (integer)
#  recon resolution (x y)                   (2*integer)
#  rescale intercept                        (float)
#  rescale slope                            (float)
#  scale slope                              (float)
#  window center                            (integer)
#  window width                             (integer)
#  image angulation (ap,fh,rl in degrees )  (3*float)
#  image offcentre (ap,fh,rl in mm )        (3*float)
#  slice thickness (in mm )                 (float)
#  slice gap (in mm )                       (float)
#  image_display_orientation                (integer)
#  slice orientation ( TRA/SAG/COR )        (integer)
#  fmri_status_indication                   (integer)
#  image_type_ed_es  (end diast/end syst)   (integer)
#  pixel spacing (x,y) (in mm)              (2*float)
#  echo_time                                (float)
#  dyn_scan_begin_time                      (float)
#  trigger_time                             (float)
#  diffusion_b_factor                       (float)
#  number of averages                       (integer)
#  image_flip_angle (in degrees)            (float)
#  cardiac frequency   (bpm)                (integer)
#  minimum RR-interval (in ms)              (integer)
#  maximum RR-interval (in ms)              (integer)
#  TURBO factor  <0=no turbo>               (integer)
#  Inversion delay (in ms)                  (float)
#  diffusion b value number    (imagekey!)  (integer)
#  gradient orientation number (imagekey!)  (integer)
#  contrast type                            (string)
#  diffusion anisotropy type                (string)
#  diffusion (ap, fh, rl)                   (3*float)
#  label type (ASL)            (imagekey!)  (integer)
#
# === IMAGE INFORMATION ==========================================================
#  sl ec  dyn ph ty    idx pix scan% rec size                (re)scale              window        angulation              offcentre        thick   gap   info      spacing     echo     dtime   ttime    diff  avg  flip    freq   RR-int  turbo delay b grad cont anis         diffusion       L.ty

  1   1    1  1 0 2     0  16   100  256  256     0.00000   6.13333 2.36502e-004    16    27  -3.06  -2.34  -0.70  -19.80   16.24   96.88  1.200  0.000 0 2 0 2  1.000  1.000   3.14    0.00     0.00    0.00   1    8.00     0    0    0   240   0.0  1   1    7    0   0.000    0.000    0.000  1
  2   1    1  1 0 2     1  16   100  256  256     0.00000   6.13333 2.36502e-004    15    27  -3.06  -2.34  -0.70  -19.75   16.18   95.68  1.200  0.000 0 2 0 2  1.000  1.000   3.14    0.00     0.00    0.00   1    8.00     0    0    0   240   0.0  1   1    7    0   0.000    0.000    0.000  1
  3   1    1  1 0 2     2  16   100  256  256     0.00000   6.13333 2.36502e-004    19    32  -3.06  -2.34  -0.70  -19.71   16.11   94.48  1.200  0.000 0 2 0 2  1.000  1.000   3.14    0.00     0.00    0.00   1    8.00     0    0    0   240   0.0  1   1    7    0   0.000    0.000    0.000  1
  4   1    1  1 0 2     3  16   100  256  256     0.00000   6.13333 2.36502e-004    20    34  -3.06  -2.34  -0.70  -19.66   16.05   93.29  1.200  0.000 0 2 0 2  1.000  1.000   3.14    0.00     0.00    0.00   1    8.00     0    0    0   240   0.0  1   1    7    0   0.000    0.000    0.000  1
  5   1    1  1 0 2     4  16   100  256  256     0.00000   6.13333 2.36502e-004    22    38  -3.06  -2.34  -0.70  -19.61   15.98   92.09  1.200  0.000 0 2 0 2  1.000  1.000   3.14    0.00     0.00    0.00   1    8.00     0    0    0   240   0.0  1   1    7    0   0.000    0.000    0.000  1
  6   1    1  1 0 2     5  16   100  256  256     0.00000   6.13333 2.36502e-004    27    47  -3.06  -2.34  -0.70  -19.56   15.92   90.89  1.200  0.000 0 2 0 2  1.000  1.000   3.14    0.00     0.00    0.00   1    8.00     0    0    0   240   0.0  1   1    7    0   0.000    0.000    0.000  1
  7   1    1  1 0 2     6  16   100  256  256     0.00000   6.13333 2.36502e-004    28    49  -3.06  -2.34  -0.70  -19.51   15.85   89.69  1.200  0.000 0 2 0 2  1.000  1.000   3.14    0.00     0.00    0.00   1    8.00     0    0    0   240   0.0  1   1    7    0   0.000    0.000    0.000  1
  8   1    1  1 0 2     7  16   100  256  256     0.00000   6.13333 2.36502e-004    26    46  -3.06  -2.34  -0.70  -19.47   15.79   88.50  1.200  0.000 0 2 0 2  1.000  1.000   3.14    0.00     0.00    0.00   1    8.00     0    0    0   240   0.0  1   1    7    0   0.000    0.000    0.000  1
  9   1    1  1 0 2     8  16   100  256  256     0.00000   6.13333 2.36502e-004    28    49  -3.06  -2.34  -0.70  -19.42   15.73   87.30  1.200  0.000 0 2 0 2  1.000  1.000   3.14    0.00     0.00    0.00   1    8.00     0    0    0   240   0.0  1   1    7    0   0.000    0.000    0.000  1
 10   1    1  1 0 2     9  16   100  256  256     0.00000   6.13333 2.36502e-004    29    51  -3.06  -2.34  -0.70  -19.37   15.66   86.10  1.200  0.000 0 2 0 2  1.000  1.000   3.14    0.00     0.00    0.00   1    8.00     0    0    0   240   0.0  1   1    7    0   0.000    0.000    0.000  1
 11   1    1  1 0 2    10  16   100  256  256     0.00000   6.13333 2.36502e-004    32    56  -3.06  -2.34  -0.70  -19.32   15.60   84.91  1.200  0.000 0 2 0 2  1.000  1.000   3.14    0.00     0.00    0.00   1    8.00     0    0    0   240   0.0  1   1    7    0   0.000    0.000    0.000  1
 12   1    1  1 0 2    11  16   100  256  256     0.00000   6.13333 2.36502e-004    31    55  -3.06  -2.34  -0.70  -19.27   15.53   83.71  1.200  0.000 0 2 0 2  1.000  1.000   3.14    0.00     0.00    0.00   1    8.00     0    0    0   240   0.0  1   1    7    0   0.000    0.000    0.000  1
 13   1    1  1 0 2    12  16   100  256  256     0.00000   6.13333 2.36502e-004    29    51  -3.06  -2.34  -0.70  -19.22   15.47   82.51  1.200  0.000 0 2 0 2  1.000  1.000   3.14    0.00     0.00    0.00   1    8.00     0    0    0   240   0.0  1   1    7    0   0.000    0.000    0.000  1
 14   1    1  1 0 2    13  16   100  256  256     0.00000   6.13333 2.36502e-004    30    53  -3.06  -2.34  -0.70  -19.18   15.40   81.31  1.200  0.000 0 2 0 2  1.000  1.000   3.14    0.00     0.00    0.00   1    8.00     0    0    0   240   0.0  1   1    7    0   0.000    0.000    0.000  1
 15   1    1  1 0 2    14  16   100  256  256     0.00000   6.13333 2.36502e-004    29    50  -3.06  -2.34  -0.70  -19.13   15.34   80.12  1.200  0.000 0 2 0 2  1.000  1.000   3.14    0.00     0.00    0.00   1    8.00     0    0    0   240   0.0  1   1    7    0   0.000    0.000    0.000  1
 16   1    1  1 0 2    15  16   100  256  256     0.00000   6.13333 2.36502e-004    32    55  -3.06  -2.34  -0.70  -19.08   15.27   78.92  1.200  0.000 0 2 0 2  1.000  1.000   3.14    0.00     0.00    0.00   1    8.00     0    0    0   240   0.0  1   1    7    0   0.000    0.000    0.000  1
 17   1    1  1 0 2    16  16   100  256  256     0.00000   6.13333 2.36502e-004    39    68  -3.06  -2.34  -0.70  -19.03   15.21   77.72  1.200  0.000 0 2 0 2  1.000  1.000   3.14    0.00     0.00    0.00   1    8.00     0    0    0   240   0.0  1   1    7    0   0.000    0.000    0.000  1
 18   1    1  1 0 2    17  16   100  256  256     0.00000   6.13333 2.36502e-004   109   190  -3.06  -2.34  -0.70  -18.98   15.14   76.52  1.200  0.000 0 2 0 2  1.000  1.000   3.14    0.00     0.00    0.00   1    8.00     0    0    0   240   0.0  1   1    7    0   0.000    0.000    0.000  1
 19   1    1  1 0 2    18  16   100  256  256     0.00000   6.13333 2.36502e-004   300   522  -3.06  -2.34  -0.70  -18.94   15.08   75.33  1.200  0.000 0 2 0 2  1.000  1.000   3.14    0.00     0.00    0.00   1    8.00     0    0    0   240   0.0  1   1    7    0   0.000    0.000    0.000  1
 20   1    1  1 0 2    19  16   100  256  256     0.00000   6.13333 2.36502e-004   391   679  -3.06  -2.34  -0.70  -18.89   15.01   74.13  1.200  0.000 0 2 0 2  1.000  1.000   3.14    0.00     0.00    0.00   1    8.00     0    0    0   240   0.0  1   1    7    0   0.000    0.000    0.000  1
 21   1    1  1 0 2    20  16   100  256  256     0.00000   6.13333 2.36502e-004   457   795  -3.06  -2.34  -0.70  -18.84   14.95   72.93  1.200  0.000 0 2 0 2  1.000  1.000   3.14    0.00     0.00    0.00   1    8.00     0    0    0   240   0.0  1   1    7    0   0.000    0.000    0.000  1
 22   1    1  1 0 2    21  16   100  256  256     0.00000   6.13333 2.36502e-004   470   818  -3.06  -2.34  -0.70  -18.79   14.89   71.74  1.200  0.000 0 2 0 2  1.000  1.000   3.14    0.00     0.00    0.00   1    8.00     0    0    0   240   0.0  1   1    7    0   0.000    0.000    0.000  1
 23   1    1  1 0 2    22  16   100  256  256     0.00000   6.13333 2.36502e-004   558   970  -3.06  -2.34  -0.70  -18.74   14.82   70.54  1.200  0.000 0 2 0 2  1.000  1.000   3.14    0.00     0.00    0.00   1    8.00     0    0    0   240   0.0  1   1    7    0   0.000    0.000    0.000  1
 24   1    1  1 0 2    23  16   100  256  256     0.00000   6.13333 2.36502e-004   676  1176  -3.06  -2.34  -0.70  -18.69   14.76   69.34  1.200  0.000 0 2 0 2  1.000  1.000   3.14    0.00     0.00    0.00   1    8.00     0    0    0   240   0.0  1   1    7    0   0.000    0.000    0.000  1
 25   1    1  1 0 2    24  16   100  256  256     0.00000   6.13333 2.36502e-004   695  1207  -3.06  -2.34  -0.70  -18.65   14.69   68.14  1.200  0.000 0 2 0 2  1.000  1.000   3.14    0.00     0.00    0.00   1    8.00     0    0    0   240   0.0  1   1    7    0   0.000    0.000    0.000  1
 26   1    1  1 0 2    25  16   100  256  256     0.00000   6.13333 2.36502e-004   801  1392  -3.06  -2.34  -0.70  -18.60   14.63   66.95  1.200  0.000 0 2 0 2  1.000  1.000   3.14    0.00     0.00    0.00   1    8.00     0    0    0   240   0.0  1   1    7    0   0.000    0.000    0.000  1
 27   1    1  1 0 2    26  16   100  256  256     0.00000   6.13333 2.36502e-004   875  1520  -3.06  -2.34  -0.70  -18.55   14.56   65.75  1.200  0.000 0 2 0 2  1.000  1.000   3.14    0.00     0.00    0.00   1    8.00     0    0    0   240   0.0  1   1    7    0   0.000    0.000    0.000  1
 28   1    1  1 0 2    27  16   100  256  256     0.00000   6.13333 2.36502e-004   944  1642  -3.06  -2.34  -0.70  -18.50   14.50   64.55  1.200  0.000 0 2 0 2  1.000  1.000   3.14    0.00     0.00    0.00   1    8.00     0    0    0   240   0.0  1   1    7    0   0.000    0.000    0.000  1
 29   1    1  1 0 2    28  16   100  256  256     0.00000   6.13333 2.36502e-004   988  1718  -3.06  -2.34  -0.70  -18.45   14.43   63.35  1.200  0.000 0 2 0 2  1.000  1.000   3.14    0.00     0.00    0.00   1    8.00     0    0    0   240   0.0  1   1    7    0   0.000    0.000    0.000  1
 30   1    1  1 0 2    29  16   100  256  256     0.00000   6.13333 2.36502e-004   998  1734  -3.06  -2.34  -0.70  -18.41   14.37   62.16  1.200  0.000 0 2 0 2  1.000  1.000   3.14    0.00     0.00    0.00   1    8.00     0    0    0   240   0.0  1   1    7    0   0.000    0.000    0.000  1
 31   1    1  1 0 2    30  16   100  256  256     0.00000   6.13333 2.36502e-004  1024  1779  -3.06  -2.34  -0.70  -18.36   14.30   60.96  1.200  0.000 0 2 0 2  1.000  1.000   3.14    0.00     0.00    0.00   1    8.00     0    0    0   240   0.0  1   1    7    0   0.000    0.000    0.000  1
 32   1    1  1 0 2    31  16   100  256  256     0.00000   6.13333 2.36502e-004  1044  1814  -3.06  -2.34  -0.70  -18.31   14.24   59.76  1.200  0.000 0 2 0 2  1.000  1.000   3.14    0.00     0.00    0.00   1    8.00     0    0    0   240   0.0  1   1    7    0   0.000    0.000    0.000  1
 33   1    1  1 0 2    32  16   100  256  256     0.00000   6.13333 2.36502e-004  1072  1863  -3.06  -2.34  -0.70  -18.26   14.17   58.56  1.200  0.000 0 2 0 2  1.000  1.000   3.14    0.00     0.00    0.00   1    8.00     0    0    0   240   0.0  1   1    7    0   0.000    0.000    0.000  1
 34   1    1  1 0 2    33  16   100  256  256     0.00000   6.13333 2.36502e-004  1078  1873  -3.06  -2.34  -0.70  -18.21   14.11   57.37  1.200  0.000 0 2 0 2  1.000  1.000   3.14    0.00     0.00    0.00   1    8.00     0    0    0   240   0.0  1   1    7    0   0.000    0.000    0.000  1
 35   1    1  1 0 2    34  16   100  256  256     0.00000   6.13333 2.36502e-004  1087  1889  -3.06  -2.34  -0.70  -18.17   14.05   56.17  1.200  0.000 0 2 0 2  1.000  1.000   3.14    0.00     0.00    0.00   1    8.00     0    0    0   240   0.0  1   1    7    0   0.000    0.000    0.000  1
 36   1    1  1 0 2    35  16   100  256  256     0.00000   6.13333 2.36502e-004  1082  1881  -3.06  -2.34  -0.70  -18.12   13.98   54.97  1.200  0.000 0 2 0 2  1.000  1.000   3.14    0.00     0.00    0.00   1    8.00     0    0    0   240   0.0  1   1    7    0   0.000    0.000    0.000  1
 37   1    1  1 0 2    36  16   100  256  256     0.00000   6.13333 2.36502e-004  1100  1912  -3.06  -2.34  -0.70  -18.07   13.92   53.78  1.200  0.000 0 2 0 2  1.000  1.000   3.14    0.00     0.00    0.00   1    8.00     0    0    0   240   0.0  1   1    7    0   0.000    0.000    0.000  1
 38   1    1  1 0 2    37  16   100  256  256     0.00000   6.13333 2.36502e-004  1088  1891  -3.06  -2.34  -0.70  -18.02   13.85   52.58  1.200  0.000 0 2 0 2  1.000  1.000   3.14    0.00     0.00    0.00   1    8.00     0    0    0   240   0.0  1   1    7    0   0.000    0.000    0.000  1
 39   1    1  1 0 2    38  16   100  256  256     0.00000   6.13333 2.36502e-004  1079  1876  -3.06  -2.34  -0.70  -17.97   13.79   51.38  1.200  0.000 0 2 0 2  1.000  1.000   3.14    0.00     0.00    0.00   1    8.00     0    0    0   240   0.0  1   1    7    0   0.000    0.000    0.000  1
 40   1    1  1 0 2    39  16   100  256  256     0.00000   6.13333 2.36502e-004  1065  1850  -3.06  -2.34  -0.70  -17.92   13.72   50.18  1.200  0.000 0 2 0 2  1.000  1.000   3.14    0.00     0.00    0.00   1    8.00     0    0    0   240   0.0  1   1    7    0   0.000    0.000    0.000  1
 41   1    1  1 0 2    40  16   100  256  256     0.00000   6.13333 2.36502e-004  1030  1790  -3.06  -2.34  -0.70  -17.88   13.66   48.99  1.200  0.000 0 2 0 2  1.000  1.000   3.14    0.00     0.00    0.00   1    8.00     0    0    0   240   0.0  1   1    7    0   0.000    0.000    0.000  1
 42   1    1  1 0 2    41  16   100  256  256     0.00000   6.13333 2.36502e-004  1016  1765  -3.06  -2.34  -0.70  -17.83   13.59   47.79  1.200  0.000 0 2 0 2  1.000  1.000   3.14    0.00     0.00    0.00   1    8.00     0    0    0   240   0.0  1   1    7    0   0.000    0.000    0.000  1
 43   1    1  1 0 2    42  16   100  256  256     0.00000   6.13333 2.36502e-004  1001  1739  -3.06  -2.34  -0.70  -17.78   13.53   46.59  1.200  0.000 0 2 0 2  1.000  1.000   3.14    0.00     0.00    0.00   1    8.00     0    0    0   240   0.0  1   1    7    0   0.000    0.000    0.000  1
 44   1    1  1 0 2    43  16   100  256  256     0.00000   6.13333 2.36502e-004  1012  1760  -3.06  -2.34  -0.70  -17.73   13.46   45.39  1.200  0.000 0 2 0 2  1.000  1.000   3.14    0.00     0.00    0.00   1    8.00     0    0    0   240   0.0  1   1    7    0   0.000    0.000    0.000  1
 45   1    1  1 0 2    44  16   100  256  256     0.00000   6.13333 2.36502e-004  1017  1767  -3.06  -2.34  -0.70  -17.68   13.40   44.20  1.200  0.000 0 2 0 2  1.000  1.000   3.14    0.00     0.00    0.00   1    8.00     0    0    0   240   0.0  1   1    7    0   0.000    0.000    0.000  1
 46   1    1  1 0 2    45  16   100  256  256     0.00000   6.13333 2.36502e-004  1015  1765  -3.06  -2.34  -0.70  -17.64   13.33   43.00  1.200  0.000 0 2 0 2  1.000  1.000   3.14    0.00     0.00    0.00   1    8.00     0    0    0   240   0.0  1   1    7    0   0.000    0.000    0.000  1
 47   1    1  1 0 2    46  16   100  256  256     0.00000   6.13333 2.36502e-004  1021  1774  -3.06  -2.34  -0.70  -17.59   13.27   41.80  1.200  0.000 0 2 0 2  1.000  1.000   3.14    0.00     0.00    0.00   1    8.00     0    0    0   240   0.0  1   1    7    0   0.000    0.000    0.000  1
 48   1    1  1 0 2    47  16   100  256  256     0.00000   6.13333 2.36502e-004  1035  1799  -3.06  -2.34  -0.70  -17.54   13.21   40.61  1.200  0.000 0 2 0 2  1.000  1.000   3.14    0.00     0.00    0.00   1    8.00     0    0    0   240   0.0  1   1    7    0   0.000    0.000    0.000  1
 49   1    1  1 0 2    48  16   100  256  256     0.00000   6.13333 2.36502e-004  1045  1816  -3.06  -2.34  -0.70  -17.49   13.14   39.41  1.200  0.000 0 2 0 2  1.000  1.000   3.14    0.00     0.00    0.00   1    8.00     0    0    0   240   0.0  1   1    7    0   0.000    0.000    0.000  1
 50   1    1  1 0 2    49  16   100  256  256     0.00000   6.13333 2.36502e-004  1093  1901  -3.06  -2.34  -0.70  -17.44   13.08   38.21  1.200  0.000 0 2 0 2  1.000  1.000   3.14    0.00     0.00    0.00   1    8.00     0    0    0   240   0.0  1   1    7    0   0.000    0.000    0.000  1
 51   1    1  1 0 2    50  16   100  256  256     0.00000   6.13333 2.36502e-004  1112  1933  -3.06  -2.34  -0.70  -17.40   13.01   37.01  1.200  0.000 0 2 0 2  1.000  1.000   3.14    0.00     0.00    0.00   1    8.00     0    0    0   240   0.0  1   1    7    0   0.000    0.000    0.000  1
 52   1    1  1 0 2    51  16   100  256  256     0.00000   6.13333 2.36502e-004  1092  1898  -3.06  -2.34  -0.70  -17.35   12.95   35.82  1.200  0.000 0 2 0 2  1.000  1.000   3.14    0.00     0.00    0.00   1    8.00     0    0    0   240   0.0  1   1    7    0   0.000    0.000    0.000  1
 53   1    1  1 0 2    52  16   100  256  256     0.00000   6.13333 2.36502e-004  1102  1916  -3.06  -2.34  -0.70  -17.30   12.88   34.62  1.200  0.000 0 2 0 2  1.000  1.000   3.14    0.00     0.00    0.00   1    8.00     0    0    0   240   0.0  1   1    7    0   0.000    0.000    0.000  1
 54   1    1  1 0 2    53  16   100  256  256     0.00000   6.13333 2.36502e-004  1110  1930  -3.06  -2.34  -0.70  -17.25   12.82   33.42  1.200  0.000 0 2 0 2  1.000  1.000   3.14    0.00     0.00    0.00   1    8.00     0    0    0   240   0.0  1   1    7    0   0.000    0.000    0.000  1
 55   1    1  1 0 2    54  16   100  256  256     0.00000   6.13333 2.36502e-004  1108  1926  -3.06  -2.34  -0.70  -17.20   12.75   32.22  1.200  0.000 0 2 0 2  1.000  1.000   3.14    0.00     0.00    0.00   1    8.00     0    0    0   240   0.0  1   1    7    0   0.000    0.000    0.000  1
 56   1    1  1 0 2    55  16   100  256  256     0.00000   6.13333 2.36502e-004  1130  1964  -3.06  -2.34  -0.70  -17.15   12.69   31.03  1.200  0.000 0 2 0 2  1.000  1.000   3.14    0.00     0.00    0.00   1    8.00     0    0    0   240   0.0  1   1    7    0   0.000    0.000    0.000  1
 57   1    1  1 0 2    56  16   100  256  256     0.00000   6.13333 2.36502e-004  1141  1984  -3.06  -2.34  -0.70  -17.11   12.62   29.83  1.200  0.000 0 2 0 2  1.000  1.000   3.14    0.00     0.00    0.00   1    8.00     0    0    0   240   0.0  1   1    7    0   0.000    0.000    0.000  1
 58   1    1  1 0 2    57  16   100  256  256     0.00000   6.13333 2.36502e-004  1140  1981  -3.06  -2.34  -0.70  -17.06   12.56   28.63  1.200  0.000 0 2 0 2  1.000  1.000   3.14    0.00     0.00    0.00   1    8.00     0    0    0   240   0.0  1   1    7    0   0.000    0.000    0.000  1
 59   1    1  1 0 2    58  16   100  256  256     0.00000   6.13333 2.36502e-004  1174  2041  -3.06  -2.34  -0.70  -17.01   12.49   27.44  1.200  0.000 0 2 0 2  1.000  1.000   3.14    0.00     0.00    0.00   1    8.00     0    0    0   240   0.0  1   1    7    0   0.000    0.000    0.000  1
 60   1    1  1 0 2    59  16   100  256  256     0.00000   6.13333 2.36502e-004  1212  2106  -3.06  -2.34  -0.70  -16.96   12.43   26.24  1.200  0.000 0 2 0 2  1.000  1.000   3.14    0.00     0.00    0.00   1    8.00     0    0    0   240   0.0  1   1    7    0   0.000    0.000    0.000  1
 61   1    1  1 0 2    60  16   100  256  256     0.00000   6.13333 2.36502e-004  1232  2142  -3.06  -2.34  -0.70  -16.91   12.37   25.04  1.200  0.000 0 2 0 2  1.000  1.000   3.14    0.00     0.00    0.00   1    8.00     0    0    0   240   0.0  1   1    7    0   0.000    0.000    0.000  1
 62   1    1  1 0 2    61  16   100  256  256     0.00000   6.13333 2.36502e-004  1256  2184  -3.06  -2.34  -0.70  -16.87   12.30   23.84  1.200  0.000 0 2 0 2  1.000  1.000   3.14    0.00     0.00    0.00   1    8.00     0    0    0   240   0.0  1   1    7    0   0.000    0.000    0.000  1
 63   1    1  1 0 2    62  16   100  256  256     0.00000   6.13333 2.36502e-004  1334  2318  -3.06  -2.34  -0.70  -16.82   12.24   22.65  1.200  0.000 0 2 0 2  1.000  1.000   3.14    0.00     0.00    0.00   1    8.00     0    0    0   240   0.0  1   1    7    0   0.000    0.000    0.000  1
 64   1    1  1 0 2    63  16   100  256  256     0.00000   6.13333 2.36502e-004  1565  2721  -3.06  -2.34  -0.70  -16.77   12.17   21.45  1.200  0.000 0 2 0 2  1.000  1.000   3.14    0.00     0.00    0.00   1    8.00     0    0    0   240   0.0  1   1    7    0   0.000    0.000    0.000  1
 65   1    1  1 0 2    64  16   100  256  256     0.00000   6.13333 2.36502e-004  1439  2501  -3.06  -2.34  -0.70  -16.72   12.11   20.25  1.200  0.000 0 2 0 2  1.000  1.000   3.14    0.00     0.00    0.00   1    8.00     0    0    0   240   0.0  1   1    7    0   0.000    0.000    0.000  1
 66   1    1  1 0 2    65  16   100  256  256     0.00000   6.13333 2.36502e-004  1203  2090  -3.06  -2.34  -0.70  -16.67   12.04   19.05  1.200  0.000 0 2 0 2  1.000  1.000   3.14    0.00     0.00    0.00   1    8.00     0    0    0   240   0.0  1   1    7    0   0.000    0.000    0.000  1
 67   1    1  1 0 2    66  16   100  256  256     0.00000   6.13333 2.36502e-004  1169  2032  -3.06  -2.34  -0.70  -16.63   11.98   17.86  1.200  0.000 0 2 0 2  1.000  1.000   3.14    0.00     0.00    0.00   1    8.00     0    0    0   240   0.0  1   1    7    0   0.000    0.000    0.000  1
 68   1    1  1 0 2    67  16   100  256  256     0.00000   6.13333 2.36502e-004  1216  2114  -3.06  -2.34  -0.70  -16.58   11.91   16.66  1.200  0.000 0 2 0 2  1.000  1.000   3.14    0.00     0.00    0.00   1    8.00     0    0    0   240   0.0  1   1    7    0   0.000    0.000    0.000  1
 69   1    1  1 0 2    68  16   100  256  256     0.00000   6.13333 2.36502e-004  1220  2121  -3.06  -2.34  -0.70  -16.53   11.85   15.46  1.200  0.000 0 2 0 2  1.000  1.000   3.14    0.00     0.00    0.00   1    8.00     0    0    0   240   0.0  1   1    7    0   0.000    0.000    0.000  1
 70   1    1  1 0 2    69  16   100  256  256     0.00000   6.13333 2.36502e-004  1218  2117  -3.06  -2.34  -0.70  -16.48   11.78   14.27  1.200  0.000 0 2 0 2  1.000  1.000   3.14    0.00     0.00    0.00   1    8.00     0    0    0   240   0.0  1   1    7    0   0.000    0.000    0.000  1
 71   1    1  1 0 2    70  16   100  256  256     0.00000   6.13333 2.36502e-004  1227  2133  -3.06  -2.34  -0.70  -16.43   11.72   13.07  1.200  0.000 0 2 0 2  1.000  1.000   3.14    0.00     0.00    0.00   1    8.00     0    0    0   240   0.0  1   1    7    0   0.000    0.000    0.000  1
 72   1    1  1 0 2    71  16   100  256  256     0.00000   6.13333 2.36502e-004  1226  2131  -3.06  -2.34  -0.70  -16.38   11.65   11.87  1.200  0.000 0 2 0 2  1.000  1.000   3.14    0.00     0.00    0.00   1    8.00     0    0    0   240   0.0  1   1    7    0   0.000    0.000    0.000  1
 73   1    1  1 0 2    72  16   100  256  256     0.00000   6.13333 2.36502e-004  1245  2164  -3.06  -2.34  -0.70  -16.34   11.59   10.67  1.200  0.000 0 2 0 2  1.000  1.000   3.14    0.00     0.00    0.00   1    8.00     0    0    0   240   0.0  1   1    7    0   0.000    0.000    0.000  1
 74   1    1  1 0 2    73  16   100  256  256     0.00000   6.13333 2.36502e-004  1201  2089  -3.06  -2.34  -0.70  -16.29   11.53    9.48  1.200  0.000 0 2 0 2  1.000  1.000   3.14    0.00     0.00    0.00   1    8.00     0    0    0   240   0.0  1   1    7    0   0.000    0.000    0.000  1
 75   1    1  1 0 2    74  16   100  256  256     0.00000   6.13333 2.36502e-004  1205  2095  -3.06  -2.34  -0.70  -16.24   11.46    8.28  1.200  0.000 0 2 0 2  1.000  1.000   3.14    0.00     0.00    0.00   1    8.00     0    0    0   240   0.0  1   1    7    0   0.000    0.000    0.000  1
 76   1    1  1 0 2    75  16   100  256  256     0.00000   6.13333 2.36502e-004  1055  1835  -3.06  -2.34  -0.70  -16.19   11.40    7.08  1.200  0.000 0 2 0 2  1.000  1.000   3.14    0.00     0.00    0.00   1    8.00     0    0    0   240   0.0  1   1    7    0   0.000    0.000    0.000  1
 77   1    1  1 0 2    76  16   100  256  256     0.00000   6.13333 2.36502e-004   975  1695  -3.06  -2.34  -0.70  -16.14   11.33    5.88  1.200  0.000 0 2 0 2  1.000  1.000   3.14    0.00     0.00    0.00   1    8.00     0    0    0   240   0.0  1   1    7    0   0.000    0.000    0.000  1
 78   1    1  1 0 2    77  16   100  256  256     0.00000   6.13333 2.36502e-004   952  1655  -3.06  -2.34  -0.70  -16.10   11.27    4.69  1.200  0.000 0 2 0 2  1.000  1.000   3.14    0.00     0.00    0.00   1    8.00     0    0    0   240   0.0  1   1    7    0   0.000    0.000    0.000  1
 79   1    1  1 0 2    78  16   100  256  256     0.00000   6.13333 2.36502e-004   992  1725  -3.06  -2.34  -0.70  -16.05   11.20    3.49  1.200  0.000 0 2 0 2  1.000  1.000   3.14    0.00     0.00    0.00   1    8.00     0    0    0   240   0.0  1   1    7    0   0.000    0.000    0.000  1
 80   1    1  1 0 2    79  16   100  256  256     0.00000   6.13333 2.36502e-004  1029  1789  -3.06  -2.34  -0.70  -16.00   11.14    2.29  1.200  0.000 0 2 0 2  1.000  1.000   3.14    0.00     0.00    0.00   1    8.00     0    0    0   240   0.0  1   1    7    0   0.000    0.000    0.000  1
 81   1    1  1 0 2    80  16   100  256  256     0.00000   6.13333 2.36502e-004  1035  1800  -3.06  -2.34  -0.70  -15.95   11.07    1.10  1.200  0.000 0 2 0 2  1.000  1.000   3.14    0.00     0.00    0.00   1    8.00     0    0    0   240   0.0  1   1    7    0   0.000    0.000    0.000  1
 82   1    1  1 0 2    81  16   100  256  256     0.00000   6.13333 2.36502e-004  1051  1827  -3.06  -2.34  -0.70  -15.90   11.01   -0.10  1.200  0.000 0 2 0 2  1.000  1.000   3.14    0.00     0.00    0.00   1    8.00     0    0    0   240   0.0  1   1    7    0   0.000    0.000    0.000  1
 83   1    1  1 0 2    82  16   100  256  256     0.00000   6.13333 2.36502e-004  1058  1838  -3.06  -2.34  -0.70  -15.86   10.94   -1.30  1.200  0.000 0 2 0 2  1.000  1.000   3.14    0.00     0.00    0.00   1    8.00     0    0    0   240   0.0  1   1    7    0   0.000    0.000    0.000  1
 84   1    1  1 0 2    83  16   100  256  256     0.00000   6.13333 2.36502e-004  1077  1872  -3.06  -2.34  -0.70  -15.81   10.88   -2.50  1.200  0.000 0 2 0 2  1.000  1.000   3.14    0.00     0.00    0.00   1    8.00     0    0    0   240   0.0  1   1    7    0   0.000    0.000    0.000  1
