# === DATA DESCRIPTION FILE ======================================================
#
# CAUTION - Investigational device.
# Limited by Federal Law to investigational use.
#
#
# CLINICAL TRYOUT             Research image export tool     V4.2
#
# === GENERAL INFORMATION ========================================================
#
.    Protocol name                      :   WIP T2W_VISTA_2mmiso_fatsat SENSE
.    Series Type                        :   Image   MRSERIES
.    Acquisition nr                     :   14
.    Reconstruction nr                  :   1
.    Scan Duration [sec]                :   108
.    Max. number of cardiac phases      :   1
.    Max. number of echoes              :   1
.    Max. number of slices/locations    :   180
.    Max. number of dynamics            :   1
.    Max. number of mixes               :   1
.    Patient position                   :   Head First Supine
.    Preparation direction              :   Anterior-Posterior
.    Technique                          :   TSE
.    Scan resolution  (x, y)            :   120  118
.    Scan mode                          :   3D
.    Repetition time [ms]               :   2500.000  
.    FOV (ap,fh,rl) [mm]                :   240.000  200.000  180.000
.    Water Fat shift [pixels]           :   1.050
.    Angulation midslice(ap,fh,rl)[degr]:   -2.866  0.099  -0.196
.    Off Centre midslice(ap,fh,rl) [mm] :   -10.881  13.183  -4.826
.    Flow compensation <0=no 1=yes> ?   :   0
.    Presaturation     <0=no 1=yes> ?   :   0
.    Phase encoding velocity [cm/sec]   :   0.000000  0.000000  0.000000
.    MTC               <0=no 1=yes> ?   :   0
.    SPIR              <0=no 1=yes> ?   :   1
.    EPI factor        <0,1=no EPI>     :   1
.    Dynamic scan      <0=no 1=yes> ?   :   0
.    Diffusion         <0=no 1=yes> ?   :   0
.    Diffusion echo time [ms]           :   0.0000
.    Max. number of diffusion values    :   1
.    Max. number of gradient orients    :   1
.    Number of label types   <0=no ASL> :   0
#
# === PIXEL VALUES =============================================================
#  PV = pixel value in REC file, FP = floating point value, DV = displayed value on console
#  RS = rescale slope,           RI = rescale intercept,    SS = scale slope
#  DV = PV * RS + RI             FP = DV / (RS * SS)
#
# === IMAGE INFORMATION DEFINITION =============================================
#  The rest of this file contains ONE line per image, this line contains the following information:
#
#  slice number                             (integer)
#  echo number                              (integer)
#  dynamic scan number                      (integer)
#  cardiac phase number                     (integer)
#  image_type_mr                            (integer)
#  scanning sequence                        (integer)
#  index in REC file (in images)            (integer)
#  image pixel size (in bits)               (integer)
#  scan percentage                          (integer)
#  recon resolution (x y)                   (2*integer)
#  rescale intercept                        (float)
#  rescale slope                            (float)
#  scale slope                              (float)
#  window center                            (integer)
#  window width                             (integer)
#  image angulation (ap,fh,rl in degrees )  (3*float)
#  image offcentre (ap,fh,rl in mm )        (3*float)
#  slice thickness (in mm )                 (float)
#  slice gap (in mm )                       (float)
#  image_display_orientation                (integer)
#  slice orientation ( TRA/SAG/COR )        (integer)
#  fmri_status_indication                   (integer)
#  image_type_ed_es  (end diast/end syst)   (integer)
#  pixel spacing (x,y) (in mm)              (2*float)
#  echo_time                                (float)
#  dyn_scan_begin_time                      (float)
#  trigger_time                             (float)
#  diffusion_b_factor                       (float)
#  number of averages                       (integer)
#  image_flip_angle (in degrees)            (float)
#  cardiac frequency   (bpm)                (integer)
#  minimum RR-interval (in ms)              (integer)
#  maximum RR-interval (in ms)              (integer)
#  TURBO factor  <0=no turbo>               (integer)
#  Inversion delay (in ms)                  (float)
#  diffusion b value number    (imagekey!)  (integer)
#  gradient orientation number (imagekey!)  (integer)
#  contrast type                            (string)
#  diffusion anisotropy type                (string)
#  diffusion (ap, fh, rl)                   (3*float)
#  label type (ASL)            (imagekey!)  (integer)
#
# === IMAGE INFORMATION ==========================================================
#  sl ec  dyn ph ty    idx pix scan% rec size                (re)scale              window        angulation              offcentre        thick   gap   info      spacing     echo     dtime   ttime    diff  avg  flip    freq   RR-int  turbo delay b grad cont anis         diffusion       L.ty

  1   1    1  1 0 1     0  16    77  256  256     0.00000   1.32308 1.19156e-004    22    38  -2.87   0.10  -0.20  -10.71   17.66   84.56  2.000 -1.000 0 2 0 2  0.943  0.943 287.22    0.00     0.00    0.00   2   90.00     0    0    0   100   0.0  1   1    8    0   0.000    0.000    0.000  1
  2   1    1  1 0 1     1  16    77  256  256     0.00000   1.32308 1.19156e-004    35    61  -2.87   0.10  -0.20  -10.71   17.61   83.56  2.000 -1.000 0 2 0 2  0.943  0.943 287.22    0.00     0.00    0.00   2   90.00     0    0    0   100   0.0  1   1    8    0   0.000    0.000    0.000  1
  3   1    1  1 0 1     2  16    77  256  256     0.00000   1.32308 1.19156e-004    44    77  -2.87   0.10  -0.20  -10.72   17.56   82.56  2.000 -1.000 0 2 0 2  0.943  0.943 287.22    0.00     0.00    0.00   2   90.00     0    0    0   100   0.0  1   1    8    0   0.000    0.000    0.000  1
  4   1    1  1 0 1     3  16    77  256  256     0.00000   1.32308 1.19156e-004    40    69  -2.87   0.10  -0.20  -10.72   17.51   81.57  2.000 -1.000 0 2 0 2  0.943  0.943 287.22    0.00     0.00    0.00   2   90.00     0    0    0   100   0.0  1   1    8    0   0.000    0.000    0.000  1
  5   1    1  1 0 1     4  16    77  256  256     0.00000   1.32308 1.19156e-004    40    69  -2.87   0.10  -0.20  -10.72   17.46   80.57  2.000 -1.000 0 2 0 2  0.943  0.943 287.22    0.00     0.00    0.00   2   90.00     0    0    0   100   0.0  1   1    8    0   0.000    0.000    0.000  1
  6   1    1  1 0 1     5  16    77  256  256     0.00000   1.32308 1.19156e-004    39    68  -2.87   0.10  -0.20  -10.72   17.41   79.57  2.000 -1.000 0 2 0 2  0.943  0.943 287.22    0.00     0.00    0.00   2   90.00     0    0    0   100   0.0  1   1    8    0   0.000    0.000    0.000  1
  7   1    1  1 0 1     6  16    77  256  256     0.00000   1.32308 1.19156e-004    37    64  -2.87   0.10  -0.20  -10.72   17.36   78.57  2.000 -1.000 0 2 0 2  0.943  0.943 287.22    0.00     0.00    0.00   2   90.00     0    0    0   100   0.0  1   1    8    0   0.000    0.000    0.000  1
  8   1    1  1 0 1     7  16    77  256  256     0.00000   1.32308 1.19156e-004    36    62  -2.87   0.10  -0.20  -10.73   17.31   77.57  2.000 -1.000 0 2 0 2  0.943  0.943 287.22    0.00     0.00    0.00   2   90.00     0    0    0   100   0.0  1   1    8    0   0.000    0.000    0.000  1
  9   1    1  1 0 1     8  16    77  256  256     0.00000   1.32308 1.19156e-004    37    63  -2.87   0.10  -0.20  -10.73   17.26   76.57  2.000 -1.000 0 2 0 2  0.943  0.943 287.22    0.00     0.00    0.00   2   90.00     0    0    0   100   0.0  1   1    8    0   0.000    0.000    0.000  1
 10   1    1  1 0 1     9  16    77  256  256     0.00000   1.32308 1.19156e-004    39    68  -2.87   0.10  -0.20  -10.73   17.21   75.57  2.000 -1.000 0 2 0 2  0.943  0.943 287.22    0.00     0.00    0.00   2   90.00     0    0    0   100   0.0  1   1    8    0   0.000    0.000    0.000  1
 11   1    1  1 0 1    10  16    77  256  256     0.00000   1.32308 1.19156e-004    49    85  -2.87   0.10  -0.20  -10.73   17.16   74.57  2.000 -1.000 0 2 0 2  0.943  0.943 287.22    0.00     0.00    0.00   2   90.00     0    0    0   100   0.0  1   1    8    0   0.000    0.000    0.000  1
 12   1    1  1 0 1    11  16    77  256  256     0.00000   1.32308 1.19156e-004    81   141  -2.87   0.10  -0.20  -10.73   17.11   73.58  2.000 -1.000 0 2 0 2  0.943  0.943 287.22    0.00     0.00    0.00   2   90.00     0    0    0   100   0.0  1   1    8    0   0.000    0.000    0.000  1
 13   1    1  1 0 1    12  16    77  256  256     0.00000   1.32308 1.19156e-004   109   190  -2.87   0.10  -0.20  -10.73   17.06   72.58  2.000 -1.000 0 2 0 2  0.943  0.943 287.22    0.00     0.00    0.00   2   90.00     0    0    0   100   0.0  1   1    8    0   0.000    0.000    0.000  1
 14   1    1  1 0 1    13  16    77  256  256     0.00000   1.32308 1.19156e-004   106   185  -2.87   0.10  -0.20  -10.74   17.01   71.58  2.000 -1.000 0 2 0 2  0.943  0.943 287.22    0.00     0.00    0.00   2   90.00     0    0    0   100   0.0  1   1    8    0   0.000    0.000    0.000  1
 15   1    1  1 0 1    14  16    77  256  256     0.00000   1.32308 1.19156e-004   101   176  -2.87   0.10  -0.20  -10.74   16.96   70.58  2.000 -1.000 0 2 0 2  0.943  0.943 287.22    0.00     0.00    0.00   2   90.00     0    0    0   100   0.0  1   1    8    0   0.000    0.000    0.000  1
 16   1    1  1 0 1    15  16    77  256  256     0.00000   1.32308 1.19156e-004    98   170  -2.87   0.10  -0.20  -10.74   16.91   69.58  2.000 -1.000 0 2 0 2  0.943  0.943 287.22    0.00     0.00    0.00   2   90.00     0    0    0   100   0.0  1   1    8    0   0.000    0.000    0.000  1
 17   1    1  1 0 1    16  16    77  256  256     0.00000   1.32308 1.19156e-004    96   167  -2.87   0.10  -0.20  -10.74   16.86   68.58  2.000 -1.000 0 2 0 2  0.943  0.943 287.22    0.00     0.00    0.00   2   90.00     0    0    0   100   0.0  1   1    8    0   0.000    0.000    0.000  1
 18   1    1  1 0 1    17  16    77  256  256     0.00000   1.32308 1.19156e-004   102   178  -2.87   0.10  -0.20  -10.74   16.81   67.58  2.000 -1.000 0 2 0 2  0.943  0.943 287.22    0.00     0.00    0.00   2   90.00     0    0    0   100   0.0  1   1    8    0   0.000    0.000    0.000  1
 19   1    1  1 0 1    18  16    77  256  256     0.00000   1.32308 1.19156e-004   105   182  -2.87   0.10  -0.20  -10.75   16.76   66.58  2.000 -1.000 0 2 0 2  0.943  0.943 287.22    0.00     0.00    0.00   2   90.00     0    0    0   100   0.0  1   1    8    0   0.000    0.000    0.000  1
 20   1    1  1 0 1    19  16    77  256  256     0.00000   1.32308 1.19156e-004   109   190  -2.87   0.10  -0.20  -10.75   16.71   65.59  2.000 -1.000 0 2 0 2  0.943  0.943 287.22    0.00     0.00    0.00   2   90.00     0    0    0   100   0.0  1   1    8    0   0.000    0.000    0.000  1
 21   1    1  1 0 1    20  16    77  256  256     0.00000   1.32308 1.19156e-004   116   202  -2.87   0.10  -0.20  -10.75   16.66   64.59  2.000 -1.000 0 2 0 2  0.943  0.943 287.22    0.00     0.00    0.00   2   90.00     0    0    0   100   0.0  1   1    8    0   0.000    0.000    0.000  1
 22   1    1  1 0 1    21  16    77  256  256     0.00000   1.32308 1.19156e-004   120   208  -2.87   0.10  -0.20  -10.75   16.61   63.59  2.000 -1.000 0 2 0 2  0.943  0.943 287.22    0.00     0.00    0.00   2   90.00     0    0    0   100   0.0  1   1    8    0   0.000    0.000    0.000  1
 23   1    1  1 0 1    22  16    77  256  256     0.00000   1.32308 1.19156e-004   117   204  -2.87   0.10  -0.20  -10.75   16.56   62.59  2.000 -1.000 0 2 0 2  0.943  0.943 287.22    0.00     0.00    0.00   2   90.00     0    0    0   100   0.0  1   1    8    0   0.000    0.000    0.000  1
 24   1    1  1 0 1    23  16    77  256  256     0.00000   1.32308 1.19156e-004   111   193  -2.87   0.10  -0.20  -10.76   16.51   61.59  2.000 -1.000 0 2 0 2  0.943  0.943 287.22    0.00     0.00    0.00   2   90.00     0    0    0   100   0.0  1   1    8    0   0.000    0.000    0.000  1
 25   1    1  1 0 1    24  16    77  256  256     0.00000   1.32308 1.19156e-004   110   191  -2.87   0.10  -0.20  -10.76   16.46   60.59  2.000 -1.000 0 2 0 2  0.943  0.943 287.22    0.00     0.00    0.00   2   90.00     0    0    0   100   0.0  1   1    8    0   0.000    0.000    0.000  1
 26   1    1  1 0 1    25  16    77  256  256     0.00000   1.32308 1.19156e-004   178   309  -2.87   0.10  -0.20  -10.76   16.41   59.59  2.000 -1.000 0 2 0 2  0.943  0.943 287.22    0.00     0.00    0.00   2   90.00     0    0    0   100   0.0  1   1    8    0   0.000    0.000    0.000  1
 27   1    1  1 0 1    26  16    77  256  256     0.00000   1.32308 1.19156e-004   316   549  -2.87   0.10  -0.20  -10.76   16.36   58.59  2.000 -1.000 0 2 0 2  0.943  0.943 287.22    0.00     0.00    0.00   2   90.00     0    0    0   100   0.0  1   1    8    0   0.000    0.000    0.000  1
 28   1    1  1 0 1    27  16    77  256  256     0.00000   1.32308 1.19156e-004   425   739  -2.87   0.10  -0.20  -10.76   16.31   57.60  2.000 -1.000 0 2 0 2  0.943  0.943 287.22    0.00     0.00    0.00   2   90.00     0    0    0   100   0.0  1   1    8    0   0.000    0.000    0.000  1
 29   1    1  1 0 1    28  16    77  256  256     0.00000   1.32308 1.19156e-004   443   769  -2.87   0.10  -0.20  -10.77   16.26   56.60  2.000 -1.000 0 2 0 2  0.943  0.943 287.22    0.00     0.00    0.00   2   90.00     0    0    0   100   0.0  1   1    8    0   0.000    0.000    0.000  1
 30   1    1  1 0 1    29  16    77  256  256     0.00000   1.32308 1.19156e-004   434   754  -2.87   0.10  -0.20  -10.77   16.21   55.60  2.000 -1.000 0 2 0 2  0.943  0.943 287.22    0.00     0.00    0.00   2   90.00     0    0    0   100   0.0  1   1    8    0   0.000    0.000    0.000  1
 31   1    1  1 0 1    30  16    77  256  256     0.00000   1.32308 1.19156e-004   440   765  -2.87   0.10  -0.20  -10.77   16.16   54.60  2.000 -1.000 0 2 0 2  0.943  0.943 287.22    0.00     0.00    0.00   2   90.00     0    0    0   100   0.0  1   1    8    0   0.000    0.000    0.000  1
 32   1    1  1 0 1    31  16    77  256  256     0.00000   1.32308 1.19156e-004   445   774  -2.87   0.10  -0.20  -10.77   16.11   53.60  2.000 -1.000 0 2 0 2  0.943  0.943 287.22    0.00     0.00    0.00   2   90.00     0    0    0   100   0.0  1   1    8    0   0.000    0.000    0.000  1
 33   1    1  1 0 1    32  16    77  256  256     0.00000   1.32308 1.19156e-004   484   841  -2.87   0.10  -0.20  -10.77   16.06   52.60  2.000 -1.000 0 2 0 2  0.943  0.943 287.22    0.00     0.00    0.00   2   90.00     0    0    0   100   0.0  1   1    8    0   0.000    0.000    0.000  1
 34   1    1  1 0 1    33  16    77  256  256     0.00000   1.32308 1.19156e-004   477   829  -2.87   0.10  -0.20  -10.77   16.01   51.60  2.000 -1.000 0 2 0 2  0.943  0.943 287.22    0.00     0.00    0.00   2   90.00     0    0    0   100   0.0  1   1    8    0   0.000    0.000    0.000  1
 35   1    1  1 0 1    34  16    77  256  256     0.00000   1.32308 1.19156e-004   517   899  -2.87   0.10  -0.20  -10.78   15.96   50.60  2.000 -1.000 0 2 0 2  0.943  0.943 287.22    0.00     0.00    0.00   2   90.00     0    0    0   100   0.0  1   1    8    0   0.000    0.000    0.000  1
 36   1    1  1 0 1    35  16    77  256  256     0.00000   1.32308 1.19156e-004   532   925  -2.87   0.10  -0.20  -10.78   15.91   49.61  2.000 -1.000 0 2 0 2  0.943  0.943 287.22    0.00     0.00    0.00   2   90.00     0    0    0   100   0.0  1   1    8    0   0.000    0.000    0.000  1
 37   1    1  1 0 1    36  16    77  256  256     0.00000   1.32308 1.19156e-004   576  1001  -2.87   0.10  -0.20  -10.78   15.86   48.61  2.000 -1.000 0 2 0 2  0.943  0.943 287.22    0.00     0.00    0.00   2   90.00     0    0    0   100   0.0  1   1    8    0   0.000    0.000    0.000  1
 38   1    1  1 0 1    37  16    77  256  256     0.00000   1.32308 1.19156e-004   565   982  -2.87   0.10  -0.20  -10.78   15.81   47.61  2.000 -1.000 0 2 0 2  0.943  0.943 287.22    0.00     0.00    0.00   2   90.00     0    0    0   100   0.0  1   1    8    0   0.000    0.000    0.000  1
 39   1    1  1 0 1    38  16    77  256  256     0.00000   1.32308 1.19156e-004   571   993  -2.87   0.10  -0.20  -10.78   15.76   46.61  2.000 -1.000 0 2 0 2  0.943  0.943 287.22    0.00     0.00    0.00   2   90.00     0    0    0   100   0.0  1   1    8    0   0.000    0.000    0.000  1
 40   1    1  1 0 1    39  16    77  256  256     0.00000   1.32308 1.19156e-004   584  1015  -2.87   0.10  -0.20  -10.79   15.71   45.61  2.000 -1.000 0 2 0 2  0.943  0.943 287.22    0.00     0.00    0.00   2   90.00     0    0    0   100   0.0  1   1    8    0   0.000    0.000    0.000  1
 41   1    1  1 0 1    40  16    77  256  256     0.00000   1.32308 1.19156e-004   615  1069  -2.87   0.10  -0.20  -10.79   15.66   44.61  2.000 -1.000 0 2 0 2  0.943  0.943 287.22    0.00     0.00    0.00   2   90.00     0    0    0   100   0.0  1   1    8    0   0.000    0.000    0.000  1
 42   1    1  1 0 1    41  16    77  256  256     0.00000   1.32308 1.19156e-004   588  1022  -2.87   0.10  -0.20  -10.79   15.61   43.61  2.000 -1.000 0 2 0 2  0.943  0.943 287.22    0.00     0.00    0.00   2   90.00     0    0    0   100   0.0  1   1    8    0   0.000    0.000    0.000  1
 43   1    1  1 0 1    42  16    77  256  256     0.00000   1.32308 1.19156e-004   547   950  -2.87   0.10  -0.20  -10.79   15.56   42.61  2.000 -1.000 0 2 0 2  0.943  0.943 287.22    0.00     0.00    0.00   2   90.00     0    0    0   100   0.0  1   1    8    0   0.000    0.000    0.000  1
 44   1    1  1 0 1    43  16    77  256  256     0.00000   1.32308 1.19156e-004   516   896  -2.87   0.10  -0.20  -10.79   15.51   41.62  2.000 -1.000 0 2 0 2  0.943  0.943 287.22    0.00     0.00    0.00   2   90.00     0    0    0   100   0.0  1   1    8    0   0.000    0.000    0.000  1
 45   1    1  1 0 1    44  16    77  256  256     0.00000   1.32308 1.19156e-004   537   934  -2.87   0.10  -0.20  -10.80   15.46   40.62  2.000 -1.000 0 2 0 2  0.943  0.943 287.22    0.00     0.00    0.00   2   90.00     0    0    0   100   0.0  1   1    8    0   0.000    0.000    0.000  1
 46   1    1  1 0 1    45  16    77  256  256     0.00000   1.32308 1.19156e-004   572   994  -2.87   0.10  -0.20  -10.80   15.41   39.62  2.000 -1.000 0 2 0 2  0.943  0.943 287.22    0.00     0.00    0.00   2   90.00     0    0    0   100   0.0  1   1    8    0   0.000    0.000    0.000  1
 47   1    1  1 0 1    46  16    77  256  256     0.00000   1.32308 1.19156e-004   590  1025  -2.87   0.10  -0.20  -10.80   15.36   38.62  2.000 -1.000 0 2 0 2  0.943  0.943 287.22    0.00     0.00    0.00   2   90.00     0    0    0   100   0.0  1   1    8    0   0.000    0.000    0.000  1
 48   1    1  1 0 1    47  16    77  256  256     0.00000   1.32308 1.19156e-004   616  1071  -2.87   0.10  -0.20  -10.80   15.31   37.62  2.000 -1.000 0 2 0 2  0.943  0.943 287.22    0.00     0.00    0.00   2   90.00     0    0    0   100   0.0  1   1    8    0   0.000    0.000    0.000  1
 49   1    1  1 0 1    48  16    77  256  256     0.00000   1.32308 1.19156e-004   656  1140  -2.87   0.10  -0.20  -10.80   15.26   36.62  2.000 -1.000 0 2 0 2  0.943  0.943 287.22    0.00     0.00    0.00   2   90.00     0    0    0   100   0.0  1   1    8    0   0.000    0.000    0.000  1
 50   1    1  1 0 1    49  16    77  256  256     0.00000   1.32308 1.19156e-004   673  1170  -2.87   0.10  -0.20  -10.80   15.21   35.62  2.000 -1.000 0 2 0 2  0.943  0.943 287.22    0.00     0.00    0.00   2   90.00     0    0    0   100   0.0  1   1    8    0   0.000    0.000    0.000  1
 51   1    1  1 0 1    50  16    77  256  256     0.00000   1.32308 1.19156e-004   708  1231  -2.87   0.10  -0.20  -10.81   15.16   34.62  2.000 -1.000 0 2 0 2  0.943  0.943 287.22    0.00     0.00    0.00   2   90.00     0    0    0   100   0.0  1   1    8    0   0.000    0.000    0.000  1
 52   1    1  1 0 1    51  16    77  256  256     0.00000   1.32308 1.19156e-004   742  1291  -2.87   0.10  -0.20  -10.81   15.11   33.63  2.000 -1.000 0 2 0 2  0.943  0.943 287.22    0.00     0.00    0.00   2   90.00     0    0    0   100   0.0  1   1    8    0   0.000    0.000    0.000  1
 53   1    1  1 0 1    52  16    77  256  256     0.00000   1.32308 1.19156e-004   786  1367  -2.87   0.10  -0.20  -10.81   15.06   32.63  2.000 -1.000 0 2 0 2  0.943  0.943 287.22    0.00     0.00    0.00   2   90.00     0    0    0   100   0.0  1   1    8    0   0.000    0.000    0.000  1
 54   1    1  1 0 1    53  16    77  256  256     0.00000   1.32308 1.19156e-004   779  1355  -2.87   0.10  -0.20  -10.81   15.01   31.63  2.000 -1.000 0 2 0 2  0.943  0.943 287.22    0.00     0.00    0.00   2   90.00     0    0    0   100   0.0  1   1    8    0   0.000    0.000    0.000  1
 55   1    1  1 0 1    54  16    77  256  256     0.00000   1.32308 1.19156e-004   772  1341  -2.87   0.10  -0.20  -10.81   14.96   30.63  2.000 -1.000 0 2 0 2  0.943  0.943 287.22    0.00     0.00    0.00   2   90.00     0    0    0   100   0.0  1   1    8    0   0.000    0.000    0.000  1
 56   1    1  1 0 1    55  16    77  256  256     0.00000   1.32308 1.19156e-004   780  1355  -2.87   0.10  -0.20  -10.82   14.91   29.63  2.000 -1.000 0 2 0 2  0.943  0.943 287.22    0.00     0.00    0.00   2   90.00     0    0    0   100   0.0  1   1    8    0   0.000    0.000    0.000  1
 57   1    1  1 0 1    56  16    77  256  256     0.00000   1.32308 1.19156e-004   773  1343  -2.87   0.10  -0.20  -10.82   14.86   28.63  2.000 -1.000 0 2 0 2  0.943  0.943 287.22    0.00     0.00    0.00   2   90.00     0    0    0   100   0.0  1   1    8    0   0.000    0.000    0.000  1
 58   1    1  1 0 1    57  16    77  256  256     0.00000   1.32308 1.19156e-004   773  1344  -2.87   0.10  -0.20  -10.82   14.81   27.63  2.000 -1.000 0 2 0 2  0.943  0.943 287.22    0.00     0.00    0.00   2   90.00     0    0    0   100   0.0  1   1    8    0   0.000    0.000    0.000  1
 59   1    1  1 0 1    58  16    77  256  256     0.00000   1.32308 1.19156e-004   766  1331  -2.87   0.10  -0.20  -10.82   14.76   26.63  2.000 -1.000 0 2 0 2  0.943  0.943 287.22    0.00     0.00    0.00   2   90.00     0    0    0   100   0.0  1   1    8    0   0.000    0.000    0.000  1
 60   1    1  1 0 1    59  16    77  256  256     0.00000   1.32308 1.19156e-004   778  1352  -2.87   0.10  -0.20  -10.82   14.71   25.64  2.000 -1.000 0 2 0 2  0.943  0.943 287.22    0.00     0.00    0.00   2   90.00     0    0    0   100   0.0  1   1    8    0   0.000    0.000    0.000  1
 61   1    1  1 0 1    60  16    77  256  256     0.00000   1.32308 1.19156e-004   779  1355  -2.87   0.10  -0.20  -10.83   14.66   24.64  2.000 -1.000 0 2 0 2  0.943  0.943 287.22    0.00     0.00    0.00   2   90.00     0    0    0   100   0.0  1   1    8    0   0.000    0.000    0.000  1
 62   1    1  1 0 1    61  16    77  256  256     0.00000   1.32308 1.19156e-004   789  1371  -2.87   0.10  -0.20  -10.83   14.61   23.64  2.000 -1.000 0 2 0 2  0.943  0.943 287.22    0.00     0.00    0.00   2   90.00     0    0    0   100   0.0  1   1    8    0   0.000    0.000    0.000  1
 63   1    1  1 0 1    62  16    77  256  256     0.00000   1.32308 1.19156e-004   793  1378  -2.87   0.10  -0.20  -10.83   14.56   22.64  2.000 -1.000 0 2 0 2  0.943  0.943 287.22    0.00     0.00    0.00   2   90.00     0    0    0   100   0.0  1   1    8    0   0.000    0.000    0.000  1
 64   1    1  1 0 1    63  16    77  256  256     0.00000   1.32308 1.19156e-004   807  1403  -2.87   0.10  -0.20  -10.83   14.51   21.64  2.000 -1.000 0 2 0 2  0.943  0.943 287.22    0.00     0.00    0.00   2   90.00     0    0    0   100   0.0  1   1    8    0   0.000    0.000    0.000  1
 65   1    1  1 0 1    64  16    77  256  256     0.00000   1.32308 1.19156e-004   841  1462  -2.87   0.10  -0.20  -10.83   14.46   20.64  2.000 -1.000 0 2 0 2  0.943  0.943 287.22    0.00     0.00    0.00   2   90.00     0    0    0   100   0.0  1   1    8    0   0.000    0.000    0.000  1
 66   1    1  1 0 1    65  16    77  256  256     0.00000   1.32308 1.19156e-004   878  1526  -2.87   0.10  -0.20  -10.84   14.41   19.64  2.000 -1.000 0 2 0 2  0.943  0.943 287.22    0.00     0.00    0.00   2   90.00     0    0    0   100   0.0  1   1    8    0   0.000    0.000    0.000  1
 67   1    1  1 0 1    66  16    77  256  256     0.00000   1.32308 1.19156e-004   895  1555  -2.87   0.10  -0.20  -10.84   14.36   18.64  2.000 -1.000 0 2 0 2  0.943  0.943 287.22    0.00     0.00    0.00   2   90.00     0    0    0   100   0.0  1   1    8    0   0.000    0.000    0.000  1
 68   1    1  1 0 1    67  16    77  256  256     0.00000   1.32308 1.19156e-004   904  1571  -2.87   0.10  -0.20  -10.84   14.31   17.65  2.000 -1.000 0 2 0 2  0.943  0.943 287.22    0.00     0.00    0.00   2   90.00     0    0    0   100   0.0  1   1    8    0   0.000    0.000    0.000  1
 69   1    1  1 0 1    68  16    77  256  256     0.00000   1.32308 1.19156e-004   910  1582  -2.87   0.10  -0.20  -10.84   14.26   16.65  2.000 -1.000 0 2 0 2  0.943  0.943 287.22    0.00     0.00    0.00   2   90.00     0    0    0   100   0.0  1   1    8    0   0.000    0.000    0.000  1
 70   1    1  1 0 1    69  16    77  256  256     0.00000   1.32308 1.19156e-004   917  1595  -2.87   0.10  -0.20  -10.84   14.21   15.65  2.000 -1.000 0 2 0 2  0.943  0.943 287.22    0.00     0.00    0.00   2   90.00     0    0    0   100   0.0  1   1    8    0   0.000    0.000    0.000  1
 71   1    1  1 0 1    70  16    77  256  256     0.00000   1.32308 1.19156e-004   930  1617  -2.87   0.10  -0.20  -10.84   14.16   14.65  2.000 -1.000 0 2 0 2  0.943  0.943 287.22    0.00     0.00    0.00   2   90.00     0    0    0   100   0.0  1   1    8    0   0.000    0.000    0.000  1
 72   1    1  1 0 1    71  16    77  256  256     0.00000   1.32308 1.19156e-004   938  1631  -2.87   0.10  -0.20  -10.85   14.11   13.65  2.000 -1.000 0 2 0 2  0.943  0.943 287.22    0.00     0.00    0.00   2   90.00     0    0    0   100   0.0  1   1    8    0   0.000    0.000    0.000  1
 73   1    1  1 0 1    72  16    77  256  256     0.00000   1.32308 1.19156e-004   930  1616  -2.87   0.10  -0.20  -10.85   14.06   12.65  2.000 -1.000 0 2 0 2  0.943  0.943 287.22    0.00     0.00    0.00   2   90.00     0    0    0   100   0.0  1   1    8    0   0.000    0.000    0.000  1
 74   1    1  1 0 1    73  16    77  256  256     0.00000   1.32308 1.19156e-004   946  1645  -2.87   0.10  -0.20  -10.85   14.01   11.65  2.000 -1.000 0 2 0 2  0.943  0.943 287.22    0.00     0.00    0.00   2   90.00     0    0    0   100   0.0  1   1    8    0   0.000    0.000    0.000  1
 75   1    1  1 0 1    74  16    77  256  256     0.00000   1.32308 1.19156e-004   954  1659  -2.87   0.10  -0.20  -10.85   13.96   10.65  2.000 -1.000 0 2 0 2  0.943  0.943 287.22    0.00     0.00    0.00   2   90.00     0    0    0   100   0.0  1   1    8    0   0.000    0.000    0.000  1
 76   1    1  1 0 1    75  16    77  256  256     0.00000   1.32308 1.19156e-004   969  1685  -2.87   0.10  -0.20  -10.85   13.91    9.66  2.000 -1.000 0 2 0 2  0.943  0.943 287.22    0.00     0.00    0.00   2   90.00     0    0    0   100   0.0  1   1    8    0   0.000    0.000    0.000  1
 77   1    1  1 0 1    76  16    77  256  256     0.00000   1.32308 1.19156e-004  1000  1738  -2.87   0.10  -0.20  -10.86   13.86    8.66  2.000 -1.000 0 2 0 2  0.943  0.943 287.22    0.00     0.00    0.00   2   90.00     0    0    0   100   0.0  1   1    8    0   0.000    0.000    0.000  1
 78   1    1  1 0 1    77  16    77  256  256     0.00000   1.32308 1.19156e-004   995  1730  -2.87   0.10  -0.20  -10.86   13.81    7.66  2.000 -1.000 0 2 0 2  0.943  0.943 287.22    0.00     0.00    0.00   2   90.00     0    0    0   100   0.0  1   1    8    0   0.000    0.000    0.000  1
 79   1    1  1 0 1    78  16    77  256  256     0.00000   1.32308 1.19156e-004   977  1698  -2.87   0.10  -0.20  -10.86   13.76    6.66  2.000 -1.000 0 2 0 2  0.943  0.943 287.22    0.00     0.00    0.00   2   90.00     0    0    0   100   0.0  1   1    8    0   0.000    0.000    0.000  1
 80   1    1  1 0 1    79  16    77  256  256     0.00000   1.32308 1.19156e-004   985  1713  -2.87   0.10  -0.20  -10.86   13.71    5.66  2.000 -1.000 0 2 0 2  0.943  0.943 287.22    0.00     0.00    0.00   2   90.00     0    0    0   100   0.0  1   1    8    0   0.000    0.000    0.000  1
 81   1    1  1 0 1    80  16    77  256  256     0.00000   1.32308 1.19156e-004   994  1727  -2.87   0.10  -0.20  -10.86   13.66    4.66  2.000 -1.000 0 2 0 2  0.943  0.943 287.22    0.00     0.00    0.00   2   90.00     0    0    0   100   0.0  1   1    8    0   0.000    0.000    0.000  1
 82   1    1  1 0 1    81  16    77  256  256     0.00000   1.32308 1.19156e-004   994  1727  -2.87   0.10  -0.20  -10.87   13.61    3.66  2.000 -1.000 0 2 0 2  0.943  0.943 287.22    0.00     0.00    0.00   2   90.00     0    0    0   100   0.0  1   1    8    0   0.000    0.000    0.000  1
 83   1    1  1 0 1    82  16    77  256  256     0.00000   1.32308 1.19156e-004   995  1730  -2.87   0.10  -0.20  -10.87   13.56    2.66  2.000 -1.000 0 2 0 2  0.943  0.943 287.22    0.00     0.00    0.00   2   90.00     0    0    0   100   0.0  1   1    8    0   0.000    0.000    0.000  1
 84   1    1  1 0 1    83  16    77  256  256     0.00000   1.32308 1.19156e-004   999  1736  -2.87   0.10  -0.20  -10.87   13.51    1.67  2.000 -1.000 0 2 0 2  0.943  0.943 287.22    0.00     0.00    0.00   2   90.00     0    0    0   100   0.0  1   1    8    0   0.000    0.000    0.000  1
