# === DATA DESCRIPTION FILE ======================================================
#
# CAUTION - Investigational device.
# Limited by Federal Law to investigational use.
#
#
# CLINICAL TRYOUT             Research image export tool     V4.2
#
# === GENERAL INFORMATION ========================================================
#
.    Protocol name                      :   WIP 3D FLAIR Sag UMich SENSE
.    Series Type                        :   Image   MRSERIES
.    Acquisition nr                     :   4
.    Reconstruction nr                  :   1
.    Scan Duration [sec]                :   528
.    Max. number of cardiac phases      :   1
.    Max. number of echoes              :   1
.    Max. number of slices/locations    :   327
.    Max. number of dynamics            :   1
.    Max. number of mixes               :   1
.    Patient position                   :   Head First Supine
.    Preparation direction              :   Anterior-Posterior
.    Technique                          :   TIR
.    Scan resolution  (x, y)            :   216  220
.    Scan mode                          :   3D
.    Repetition time [ms]               :   8000.000  
.    FOV (ap,fh,rl) [mm]                :   240.000  200.000  179.850
.    Water Fat shift [pixels]           :   0.858
.    Angulation midslice(ap,fh,rl)[degr]:   -2.866  0.099  -0.196
.    Off Centre midslice(ap,fh,rl) [mm] :   -10.881  13.183  -4.826
.    Flow compensation <0=no 1=yes> ?   :   1
.    Presaturation     <0=no 1=yes> ?   :   0
.    Phase encoding velocity [cm/sec]   :   0.000000  0.000000  0.000000
.    MTC               <0=no 1=yes> ?   :   0
.    SPIR              <0=no 1=yes> ?   :   1
.    EPI factor        <0,1=no EPI>     :   1
.    Dynamic scan      <0=no 1=yes> ?   :   0
.    Diffusion         <0=no 1=yes> ?   :   0
.    Diffusion echo time [ms]           :   0.0000
.    Max. number of diffusion values    :   1
.    Max. number of gradient orients    :   1
.    Number of label types   <0=no ASL> :   0
#
# === PIXEL VALUES =============================================================
#  PV = pixel value in REC file, FP = floating point value, DV = displayed value on console
#  RS = rescale slope,           RI = rescale intercept,    SS = scale slope
#  DV = PV * RS + RI             FP = DV / (RS * SS)
#
# === IMAGE INFORMATION DEFINITION =============================================
#  The rest of this file contains ONE line per image, this line contains the following information:
#
#  slice number                             (integer)
#  echo number                              (integer)
#  dynamic scan number                      (integer)
#  cardiac phase number                     (integer)
#  image_type_mr                            (integer)
#  scanning sequence                        (integer)
#  index in REC file (in images)            (integer)
#  image pixel size (in bits)               (integer)
#  scan percentage                          (integer)
#  recon resolution (x y)                   (2*integer)
#  rescale intercept                        (float)
#  rescale slope                            (float)
#  scale slope                              (float)
#  window center                            (integer)
#  window width                             (integer)
#  image angulation (ap,fh,rl in degrees )  (3*float)
#  image offcentre (ap,fh,rl in mm )        (3*float)
#  slice thickness (in mm )                 (float)
#  slice gap (in mm )                       (float)
#  image_display_orientation                (integer)
#  slice orientation ( TRA/SAG/COR )        (integer)
#  fmri_status_indication                   (integer)
#  image_type_ed_es  (end diast/end syst)   (integer)
#  pixel spacing (x,y) (in mm)              (2*float)
#  echo_time                                (float)
#  dyn_scan_begin_time                      (float)
#  trigger_time                             (float)
#  diffusion_b_factor                       (float)
#  number of averages                       (integer)
#  image_flip_angle (in degrees)            (float)
#  cardiac frequency   (bpm)                (integer)
#  minimum RR-interval (in ms)              (integer)
#  maximum RR-interval (in ms)              (integer)
#  TURBO factor  <0=no turbo>               (integer)
#  Inversion delay (in ms)                  (float)
#  diffusion b value number    (imagekey!)  (integer)
#  gradient orientation number (imagekey!)  (integer)
#  contrast type                            (string)
#  diffusion anisotropy type                (string)
#  diffusion (ap, fh, rl)                   (3*float)
#  label type (ASL)            (imagekey!)  (integer)
#
# === IMAGE INFORMATION ==========================================================
#  sl ec  dyn ph ty    idx pix scan% rec size                (re)scale              window        angulation              offcentre        thick   gap   info      spacing     echo     dtime   ttime    diff  avg  flip    freq   RR-int  turbo delay b grad cont anis         diffusion       L.ty

  1   1    1  1 0 0     0  16    79  576  576     0.00000   6.28449 1.14736e-003    21    36  -2.87   0.10  -0.20  -10.71   17.66   84.71  1.100 -0.550 0 2 0 2  0.417  0.417 330.91    0.00     0.00    0.00   1   90.00     0    0    0   110 2400.0  1   1    8    0   0.000    0.000    0.000  1
  2   1    1  1 0 0     1  16    79  576  576     0.00000   6.28449 1.14736e-003    34    60  -2.87   0.10  -0.20  -10.71   17.64   84.16  1.100 -0.550 0 2 0 2  0.417  0.417 330.91    0.00     0.00    0.00   1   90.00     0    0    0   110 2400.0  1   1    8    0   0.000    0.000    0.000  1
  3   1    1  1 0 0     2  16    79  576  576     0.00000   6.28449 1.14736e-003    34    59  -2.87   0.10  -0.20  -10.71   17.61   83.61  1.100 -0.550 0 2 0 2  0.417  0.417 330.91    0.00     0.00    0.00   1   90.00     0    0    0   110 2400.0  1   1    8    0   0.000    0.000    0.000  1
  4   1    1  1 0 0     3  16    79  576  576     0.00000   6.28449 1.14736e-003    34    59  -2.87   0.10  -0.20  -10.71   17.58   83.06  1.100 -0.550 0 2 0 2  0.417  0.417 330.91    0.00     0.00    0.00   1   90.00     0    0    0   110 2400.0  1   1    8    0   0.000    0.000    0.000  1
  5   1    1  1 0 0     4  16    79  576  576     0.00000   6.28449 1.14736e-003    31    54  -2.87   0.10  -0.20  -10.72   17.55   82.51  1.100 -0.550 0 2 0 2  0.417  0.417 330.91    0.00     0.00    0.00   1   90.00     0    0    0   110 2400.0  1   1    8    0   0.000    0.000    0.000  1
  6   1    1  1 0 0     5  16    79  576  576     0.00000   6.28449 1.14736e-003    30    53  -2.87   0.10  -0.20  -10.72   17.53   81.96  1.100 -0.550 0 2 0 2  0.417  0.417 330.91    0.00     0.00    0.00   1   90.00     0    0    0   110 2400.0  1   1    8    0   0.000    0.000    0.000  1
  7   1    1  1 0 0     6  16    79  576  576     0.00000   6.28449 1.14736e-003    28    49  -2.87   0.10  -0.20  -10.72   17.50   81.42  1.100 -0.550 0 2 0 2  0.417  0.417 330.91    0.00     0.00    0.00   1   90.00     0    0    0   110 2400.0  1   1    8    0   0.000    0.000    0.000  1
  8   1    1  1 0 0     7  16    79  576  576     0.00000   6.28449 1.14736e-003    25    44  -2.87   0.10  -0.20  -10.72   17.47   80.87  1.100 -0.550 0 2 0 2  0.417  0.417 330.91    0.00     0.00    0.00   1   90.00     0    0    0   110 2400.0  1   1    8    0   0.000    0.000    0.000  1
  9   1    1  1 0 0     8  16    79  576  576     0.00000   6.28449 1.14736e-003    25    44  -2.87   0.10  -0.20  -10.72   17.44   80.32  1.100 -0.550 0 2 0 2  0.417  0.417 330.91    0.00     0.00    0.00   1   90.00     0    0    0   110 2400.0  1   1    8    0   0.000    0.000    0.000  1
 10   1    1  1 0 0     9  16    79  576  576     0.00000   6.28449 1.14736e-003    26    45  -2.87   0.10  -0.20  -10.72   17.42   79.77  1.100 -0.550 0 2 0 2  0.417  0.417 330.91    0.00     0.00    0.00   1   90.00     0    0    0   110 2400.0  1   1    8    0   0.000    0.000    0.000  1
 11   1    1  1 0 0    10  16    79  576  576     0.00000   6.28449 1.14736e-003    25    44  -2.87   0.10  -0.20  -10.72   17.39   79.22  1.100 -0.550 0 2 0 2  0.417  0.417 330.91    0.00     0.00    0.00   1   90.00     0    0    0   110 2400.0  1   1    8    0   0.000    0.000    0.000  1
 12   1    1  1 0 0    11  16    79  576  576     0.00000   6.28449 1.14736e-003    26    45  -2.87   0.10  -0.20  -10.72   17.36   78.67  1.100 -0.550 0 2 0 2  0.417  0.417 330.91    0.00     0.00    0.00   1   90.00     0    0    0   110 2400.0  1   1    8    0   0.000    0.000    0.000  1
 13   1    1  1 0 0    12  16    79  576  576     0.00000   6.28449 1.14736e-003    27    48  -2.87   0.10  -0.20  -10.72   17.33   78.12  1.100 -0.550 0 2 0 2  0.417  0.417 330.91    0.00     0.00    0.00   1   90.00     0    0    0   110 2400.0  1   1    8    0   0.000    0.000    0.000  1
 14   1    1  1 0 0    13  16    79  576  576     0.00000   6.28449 1.14736e-003    30    52  -2.87   0.10  -0.20  -10.73   17.31   77.57  1.100 -0.550 0 2 0 2  0.417  0.417 330.91    0.00     0.00    0.00   1   90.00     0    0    0   110 2400.0  1   1    8    0   0.000    0.000    0.000  1
 15   1    1  1 0 0    14  16    79  576  576     0.00000   6.28449 1.14736e-003    35    60  -2.87   0.10  -0.20  -10.73   17.28   77.02  1.100 -0.550 0 2 0 2  0.417  0.417 330.91    0.00     0.00    0.00   1   90.00     0    0    0   110 2400.0  1   1    8    0   0.000    0.000    0.000  1
 16   1    1  1 0 0    15  16    79  576  576     0.00000   6.28449 1.14736e-003    36    62  -2.87   0.10  -0.20  -10.73   17.25   76.47  1.100 -0.550 0 2 0 2  0.417  0.417 330.91    0.00     0.00    0.00   1   90.00     0    0    0   110 2400.0  1   1    8    0   0.000    0.000    0.000  1
 17   1    1  1 0 0    16  16    79  576  576     0.00000   6.28449 1.14736e-003    41    71  -2.87   0.10  -0.20  -10.73   17.22   75.92  1.100 -0.550 0 2 0 2  0.417  0.417 330.91    0.00     0.00    0.00   1   90.00     0    0    0   110 2400.0  1   1    8    0   0.000    0.000    0.000  1
 18   1    1  1 0 0    17  16    79  576  576     0.00000   6.28449 1.14736e-003    65   114  -2.87   0.10  -0.20  -10.73   17.20   75.37  1.100 -0.550 0 2 0 2  0.417  0.417 330.91    0.00     0.00    0.00   1   90.00     0    0    0   110 2400.0  1   1    8    0   0.000    0.000    0.000  1
 19   1    1  1 0 0    18  16    79  576  576     0.00000   6.28449 1.14736e-003   140   243  -2.87   0.10  -0.20  -10.73   17.17   74.82  1.100 -0.550 0 2 0 2  0.417  0.417 330.91    0.00     0.00    0.00   1   90.00     0    0    0   110 2400.0  1   1    8    0   0.000    0.000    0.000  1
 20   1    1  1 0 0    19  16    79  576  576     0.00000   6.28449 1.14736e-003   245   426  -2.87   0.10  -0.20  -10.73   17.14   74.27  1.100 -0.550 0 2 0 2  0.417  0.417 330.91    0.00     0.00    0.00   1   90.00     0    0    0   110 2400.0  1   1    8    0   0.000    0.000    0.000  1
 21   1    1  1 0 0    20  16    79  576  576     0.00000   6.28449 1.14736e-003   317   552  -2.87   0.10  -0.20  -10.73   17.11   73.73  1.100 -0.550 0 2 0 2  0.417  0.417 330.91    0.00     0.00    0.00   1   90.00     0    0    0   110 2400.0  1   1    8    0   0.000    0.000    0.000  1
 22   1    1  1 0 0    21  16    79  576  576     0.00000   6.28449 1.14736e-003   330   573  -2.87   0.10  -0.20  -10.73   17.09   73.18  1.100 -0.550 0 2 0 2  0.417  0.417 330.91    0.00     0.00    0.00   1   90.00     0    0    0   110 2400.0  1   1    8    0   0.000    0.000    0.000  1
 23   1    1  1 0 0    22  16    79  576  576     0.00000   6.28449 1.14736e-003   322   560  -2.87   0.10  -0.20  -10.73   17.06   72.63  1.100 -0.550 0 2 0 2  0.417  0.417 330.91    0.00     0.00    0.00   1   90.00     0    0    0   110 2400.0  1   1    8    0   0.000    0.000    0.000  1
 24   1    1  1 0 0    23  16    79  576  576     0.00000   6.28449 1.14736e-003   316   550  -2.87   0.10  -0.20  -10.74   17.03   72.08  1.100 -0.550 0 2 0 2  0.417  0.417 330.91    0.00     0.00    0.00   1   90.00     0    0    0   110 2400.0  1   1    8    0   0.000    0.000    0.000  1
 25   1    1  1 0 0    24  16    79  576  576     0.00000   6.28449 1.14736e-003   315   548  -2.87   0.10  -0.20  -10.74   17.00   71.53  1.100 -0.550 0 2 0 2  0.417  0.417 330.91    0.00     0.00    0.00   1   90.00     0    0    0   110 2400.0  1   1    8    0   0.000    0.000    0.000  1
 26   1    1  1 0 0    25  16    79  576  576     0.00000   6.28449 1.14736e-003   319   554  -2.87   0.10  -0.20  -10.74   16.98   70.98  1.100 -0.550 0 2 0 2  0.417  0.417 330.91    0.00     0.00    0.00   1   90.00     0    0    0   110 2400.0  1   1    8    0   0.000    0.000    0.000  1
 27   1    1  1 0 0    26  16    79  576  576     0.00000   6.28449 1.14736e-003   302   525  -2.87   0.10  -0.20  -10.74   16.95   70.43  1.100 -0.550 0 2 0 2  0.417  0.417 330.91    0.00     0.00    0.00   1   90.00     0    0    0   110 2400.0  1   1    8    0   0.000    0.000    0.000  1
 28   1    1  1 0 0    27  16    79  576  576     0.00000   6.28449 1.14736e-003   318   553  -2.87   0.10  -0.20  -10.74   16.92   69.88  1.100 -0.550 0 2 0 2  0.417  0.417 330.91    0.00     0.00    0.00   1   90.00     0    0    0   110 2400.0  1   1    8    0   0.000    0.000    0.000  1
 29   1    1  1 0 0    28  16    79  576  576     0.00000   6.28449 1.14736e-003   349   606  -2.87   0.10  -0.20  -10.74   16.89   69.33  1.100 -0.550 0 2 0 2  0.417  0.417 330.91    0.00     0.00    0.00   1   90.00     0    0    0   110 2400.0  1   1    8    0   0.000    0.000    0.000  1
 30   1    1  1 0 0    29  16    79  576  576     0.00000   6.28449 1.14736e-003   353   613  -2.87   0.10  -0.20  -10.74   16.87   68.78  1.100 -0.550 0 2 0 2  0.417  0.417 330.91    0.00     0.00    0.00   1   90.00     0    0    0   110 2400.0  1   1    8    0   0.000    0.000    0.000  1
 31   1    1  1 0 0    30  16    79  576  576     0.00000   6.28449 1.14736e-003   370   643  -2.87   0.10  -0.20  -10.74   16.84   68.23  1.100 -0.550 0 2 0 2  0.417  0.417 330.91    0.00     0.00    0.00   1   90.00     0    0    0   110 2400.0  1   1    8    0   0.000    0.000    0.000  1
 32   1    1  1 0 0    31  16    79  576  576     0.00000   6.28449 1.14736e-003   425   739  -2.87   0.10  -0.20  -10.74   16.81   67.68  1.100 -0.550 0 2 0 2  0.417  0.417 330.91    0.00     0.00    0.00   1   90.00     0    0    0   110 2400.0  1   1    8    0   0.000    0.000    0.000  1
 33   1    1  1 0 0    32  16    79  576  576     0.00000   6.28449 1.14736e-003   453   788  -2.87   0.10  -0.20  -10.75   16.79   67.13  1.100 -0.550 0 2 0 2  0.417  0.417 330.91    0.00     0.00    0.00   1   90.00     0    0    0   110 2400.0  1   1    8    0   0.000    0.000    0.000  1
 34   1    1  1 0 0    33  16    79  576  576     0.00000   6.28449 1.14736e-003   461   802  -2.87   0.10  -0.20  -10.75   16.76   66.58  1.100 -0.550 0 2 0 2  0.417  0.417 330.91    0.00     0.00    0.00   1   90.00     0    0    0   110 2400.0  1   1    8    0   0.000    0.000    0.000  1
 35   1    1  1 0 0    34  16    79  576  576     0.00000   6.28449 1.14736e-003   448   779  -2.87   0.10  -0.20  -10.75   16.73   66.03  1.100 -0.550 0 2 0 2  0.417  0.417 330.91    0.00     0.00    0.00   1   90.00     0    0    0   110 2400.0  1   1    8    0   0.000    0.000    0.000  1
 36   1    1  1 0 0    35  16    79  576  576     0.00000   6.28449 1.14736e-003   472   820  -2.87   0.10  -0.20  -10.75   16.70   65.49  1.100 -0.550 0 2 0 2  0.417  0.417 330.91    0.00     0.00    0.00   1   90.00     0    0    0   110 2400.0  1   1    8    0   0.000    0.000    0.000  1
 37   1    1  1 0 0    36  16    79  576  576     0.00000   6.28449 1.14736e-003   479   833  -2.87   0.10  -0.20  -10.75   16.68   64.94  1.100 -0.550 0 2 0 2  0.417  0.417 330.91    0.00     0.00    0.00   1   90.00     0    0    0   110 2400.0  1   1    8    0   0.000    0.000    0.000  1
 38   1    1  1 0 0    37  16    79  576  576     0.00000   6.28449 1.14736e-003   473   822  -2.87   0.10  -0.20  -10.75   16.65   64.39  1.100 -0.550 0 2 0 2  0.417  0.417 330.91    0.00     0.00    0.00   1   90.00     0    0    0   110 2400.0  1   1    8    0   0.000    0.000    0.000  1
 39   1    1  1 0 0    38  16    79  576  576     0.00000   6.28449 1.14736e-003   483   839  -2.87   0.10  -0.20  -10.75   16.62   63.84  1.100 -0.550 0 2 0 2  0.417  0.417 330.91    0.00     0.00    0.00   1   90.00     0    0    0   110 2400.0  1   1    8    0   0.000    0.000    0.000  1
 40   1    1  1 0 0    39  16    79  576  576     0.00000   6.28449 1.14736e-003   489   851  -2.87   0.10  -0.20  -10.75   16.59   63.29  1.100 -0.550 0 2 0 2  0.417  0.417 330.91    0.00     0.00    0.00   1   90.00     0    0    0   110 2400.0  1   1    8    0   0.000    0.000    0.000  1
 41   1    1  1 0 0    40  16    79  576  576     0.00000   6.28449 1.14736e-003   492   855  -2.87   0.10  -0.20  -10.75   16.57   62.74  1.100 -0.550 0 2 0 2  0.417  0.417 330.91    0.00     0.00    0.00   1   90.00     0    0    0   110 2400.0  1   1    8    0   0.000    0.000    0.000  1
 42   1    1  1 0 0    41  16    79  576  576     0.00000   6.28449 1.14736e-003   496   862  -2.87   0.10  -0.20  -10.75   16.54   62.19  1.100 -0.550 0 2 0 2  0.417  0.417 330.91    0.00     0.00    0.00   1   90.00     0    0    0   110 2400.0  1   1    8    0   0.000    0.000    0.000  1
 43   1    1  1 0 0    42  16    79  576  576     0.00000   6.28449 1.14736e-003   500   869  -2.87   0.10  -0.20  -10.76   16.51   61.64  1.100 -0.550 0 2 0 2  0.417  0.417 330.91    0.00     0.00    0.00   1   90.00     0    0    0   110 2400.0  1   1    8    0   0.000    0.000    0.000  1
 44   1    1  1 0 0    43  16    79  576  576     0.00000   6.28449 1.14736e-003   470   817  -2.87   0.10  -0.20  -10.76   16.48   61.09  1.100 -0.550 0 2 0 2  0.417  0.417 330.91    0.00     0.00    0.00   1   90.00     0    0    0   110 2400.0  1   1    8    0   0.000    0.000    0.000  1
 45   1    1  1 0 0    44  16    79  576  576     0.00000   6.28449 1.14736e-003   447   778  -2.87   0.10  -0.20  -10.76   16.46   60.54  1.100 -0.550 0 2 0 2  0.417  0.417 330.91    0.00     0.00    0.00   1   90.00     0    0    0   110 2400.0  1   1    8    0   0.000    0.000    0.000  1
 46   1    1  1 0 0    45  16    79  576  576     0.00000   6.28449 1.14736e-003   479   833  -2.87   0.10  -0.20  -10.76   16.43   59.99  1.100 -0.550 0 2 0 2  0.417  0.417 330.91    0.00     0.00    0.00   1   90.00     0    0    0   110 2400.0  1   1    8    0   0.000    0.000    0.000  1
 47   1    1  1 0 0    46  16    79  576  576     0.00000   6.28449 1.14736e-003   602  1046  -2.87   0.10  -0.20  -10.76   16.40   59.44  1.100 -0.550 0 2 0 2  0.417  0.417 330.91    0.00     0.00    0.00   1   90.00     0    0    0   110 2400.0  1   1    8    0   0.000    0.000    0.000  1
 48   1    1  1 0 0    47  16    79  576  576     0.00000   6.28449 1.14736e-003   734  1276  -2.87   0.10  -0.20  -10.76   16.37   58.89  1.100 -0.550 0 2 0 2  0.417  0.417 330.91    0.00     0.00    0.00   1   90.00     0    0    0   110 2400.0  1   1    8    0   0.000    0.000    0.000  1
 49   1    1  1 0 0    48  16    79  576  576     0.00000   6.28449 1.14736e-003   841  1463  -2.87   0.10  -0.20  -10.76   16.35   58.34  1.100 -0.550 0 2 0 2  0.417  0.417 330.91    0.00     0.00    0.00   1   90.00     0    0    0   110 2400.0  1   1    8    0   0.000    0.000    0.000  1
 50   1    1  1 0 0    49  16    79  576  576     0.00000   6.28449 1.14736e-003   957  1663  -2.87   0.10  -0.20  -10.76   16.32   57.80  1.100 -0.550 0 2 0 2  0.417  0.417 330.91    0.00     0.00    0.00   1   90.00     0    0    0   110 2400.0  1   1    8    0   0.000    0.000    0.000  1
 51   1    1  1 0 0    50  16    79  576  576     0.00000   6.28449 1.14736e-003  1064  1850  -2.87   0.10  -0.20  -10.76   16.29   57.25  1.100 -0.550 0 2 0 2  0.417  0.417 330.91    0.00     0.00    0.00   1   90.00     0    0    0   110 2400.0  1   1    8    0   0.000    0.000    0.000  1
 52   1    1  1 0 0    51  16    79  576  576     0.00000   6.28449 1.14736e-003  1124  1954  -2.87   0.10  -0.20  -10.76   16.26   56.70  1.100 -0.550 0 2 0 2  0.417  0.417 330.91    0.00     0.00    0.00   1   90.00     0    0    0   110 2400.0  1   1    8    0   0.000    0.000    0.000  1
 53   1    1  1 0 0    52  16    79  576  576     0.00000   6.28449 1.14736e-003  1172  2037  -2.87   0.10  -0.20  -10.77   16.24   56.15  1.100 -0.550 0 2 0 2  0.417  0.417 330.91    0.00     0.00    0.00   1   90.00     0    0    0   110 2400.0  1   1    8    0   0.000    0.000    0.000  1
 54   1    1  1 0 0    53  16    79  576  576     0.00000   6.28449 1.14736e-003  1197  2080  -2.87   0.10  -0.20  -10.77   16.21   55.60  1.100 -0.550 0 2 0 2  0.417  0.417 330.91    0.00     0.00    0.00   1   90.00     0    0    0   110 2400.0  1   1    8    0   0.000    0.000    0.000  1
 55   1    1  1 0 0    54  16    79  576  576     0.00000   6.28449 1.14736e-003  1224  2128  -2.87   0.10  -0.20  -10.77   16.18   55.05  1.100 -0.550 0 2 0 2  0.417  0.417 330.91    0.00     0.00    0.00   1   90.00     0    0    0   110 2400.0  1   1    8    0   0.000    0.000    0.000  1
 56   1    1  1 0 0    55  16    79  576  576     0.00000   6.28449 1.14736e-003  1245  2165  -2.87   0.10  -0.20  -10.77   16.15   54.50  1.100 -0.550 0 2 0 2  0.417  0.417 330.91    0.00     0.00    0.00   1   90.00     0    0    0   110 2400.0  1   1    8    0   0.000    0.000    0.000  1
 57   1    1  1 0 0    56  16    79  576  576     0.00000   6.28449 1.14736e-003  1271  2209  -2.87   0.10  -0.20  -10.77   16.13   53.95  1.100 -0.550 0 2 0 2  0.417  0.417 330.91    0.00     0.00    0.00   1   90.00     0    0    0   110 2400.0  1   1    8    0   0.000    0.000    0.000  1
 58   1    1  1 0 0    57  16    79  576  576     0.00000   6.28449 1.14736e-003  1287  2237  -2.87   0.10  -0.20  -10.77   16.10   53.40  1.100 -0.550 0 2 0 2  0.417  0.417 330.91    0.00     0.00    0.00   1   90.00     0    0    0   110 2400.0  1   1    8    0   0.000    0.000    0.000  1
 59   1    1  1 0 0    58  16    79  576  576     0.00000   6.28449 1.14736e-003  1302  2263  -2.87   0.10  -0.20  -10.77   16.07   52.85  1.100 -0.550 0 2 0 2  0.417  0.417 330.91    0.00     0.00    0.00   1   90.00     0    0    0   110 2400.0  1   1    8    0   0.000    0.000    0.000  1
 60   1    1  1 0 0    59  16    79  576  576     0.00000   6.28449 1.14736e-003  1309  2276  -2.87   0.10  -0.20  -10.77   16.04   52.30  1.100 -0.550 0 2 0 2  0.417  0.417 330.91    0.00     0.00    0.00   1   90.00     0    0    0   110 2400.0  1   1    8    0   0.000    0.000    0.000  1
 61   1    1  1 0 0    60  16    79  576  576     0.00000   6.28449 1.14736e-003  1308  2274  -2.87   0.10  -0.20  -10.77   16.02   51.75  1.100 -0.550 0 2 0 2  0.417  0.417 330.91    0.00     0.00    0.00   1   90.00     0    0    0   110 2400.0  1   1    8    0   0.000    0.000    0.000  1
 62   1    1  1 0 0    61  16    79  576  576     0.00000   6.28449 1.14736e-003  1308  2274  -2.87   0.10  -0.20  -10.78   15.99   51.20  1.100 -0.550 0 2 0 2  0.417  0.417 330.91    0.00     0.00    0.00   1   90.00     0    0    0   110 2400.0  1   1    8    0   0.000    0.000    0.000  1
 63   1    1  1 0 0    62  16    79  576  576     0.00000   6.28449 1.14736e-003  1312  2281  -2.87   0.10  -0.20  -10.78   15.96   50.65  1.100 -0.550 0 2 0 2  0.417  0.417 330.91    0.00     0.00    0.00   1   90.00     0    0    0   110 2400.0  1   1    8    0   0.000    0.000    0.000  1
 64   1    1  1 0 0    63  16    79  576  576     0.00000   6.28449 1.14736e-003  1316  2288  -2.87   0.10  -0.20  -10.78   15.93   50.10  1.100 -0.550 0 2 0 2  0.417  0.417 330.91    0.00     0.00    0.00   1   90.00     0    0    0   110 2400.0  1   1    8    0   0.000    0.000    0.000  1
 65   1    1  1 0 0    64  16    79  576  576     0.00000   6.28449 1.14736e-003  1309  2275  -2.87   0.10  -0.20  -10.78   15.91   49.56  1.100 -0.550 0 2 0 2  0.417  0.417 330.91    0.00     0.00    0.00   1   90.00     0    0    0   110 2400.0  1   1    8    0   0.000    0.000    0.000  1
 66   1    1  1 0 0    65  16    79  576  576     0.00000   6.28449 1.14736e-003  1315  2286  -2.87   0.10  -0.20  -10.78   15.88   49.01  1.100 -0.550 0 2 0 2  0.417  0.417 330.91    0.00     0.00    0.00   1   90.00     0    0    0   110 2400.0  1   1    8    0   0.000    0.000    0.000  1
 67   1    1  1 0 0    66  16    79  576  576     0.00000   6.28449 1.14736e-003  1324  2301  -2.87   0.10  -0.20  -10.78   15.85   48.46  1.100 -0.550 0 2 0 2  0.417  0.417 330.91    0.00     0.00    0.00   1   90.00     0    0    0   110 2400.0  1   1    8    0   0.000    0.000    0.000  1
 68   1    1  1 0 0    67  16    79  576  576     0.00000   6.28449 1.14736e-003  1343  2334  -2.87   0.10  -0.20  -10.78   15.82   47.91  1.100 -0.550 0 2 0 2  0.417  0.417 330.91    0.00     0.00    0.00   1   90.00     0    0    0   110 2400.0  1   1    8    0   0.000    0.000    0.000  1
 69   1    1  1 0 0    68  16    79  576  576     0.00000   6.28449 1.14736e-003  1360  2363  -2.87   0.10  -0.20  -10.78   15.80   47.36  1.100 -0.550 0 2 0 2  0.417  0.417 330.91    0.00     0.00    0.00   1   90.00     0    0    0   110 2400.0  1   1    8    0   0.000    0.000    0.000  1
 70   1    1  1 0 0    69  16    79  576  576     0.00000   6.28449 1.14736e-003  1353  2352  -2.87   0.10  -0.20  -10.78   15.77   46.81  1.100 -0.550 0 2 0 2  0.417  0.417 330.91    0.00     0.00    0.00   1   90.00     0    0    0   110 2400.0  1   1    8    0   0.000    0.000    0.000  1
 71   1    1  1 0 0    70  16    79  576  576     0.00000   6.28449 1.14736e-003  1342  2332  -2.87   0.10  -0.20  -10.78   15.74   46.26  1.100 -0.550 0 2 0 2  0.417  0.417 330.91    0.00     0.00    0.00   1   90.00     0    0    0   110 2400.0  1   1    8    0   0.000    0.000    0.000  1
 72   1    1  1 0 0    71  16    79  576  576     0.00000   6.28449 1.14736e-003  1344  2337  -2.87   0.10  -0.20  -10.79   15.71   45.71  1.100 -0.550 0 2 0 2  0.417  0.417 330.91    0.00     0.00    0.00   1   90.00     0    0    0   110 2400.0  1   1    8    0   0.000    0.000    0.000  1
 73   1    1  1 0 0    72  16    79  576  576     0.00000   6.28449 1.14736e-003  1357  2358  -2.87   0.10  -0.20  -10.79   15.69   45.16  1.100 -0.550 0 2 0 2  0.417  0.417 330.91    0.00     0.00    0.00   1   90.00     0    0    0   110 2400.0  1   1    8    0   0.000    0.000    0.000  1
 74   1    1  1 0 0    73  16    79  576  576     0.00000   6.28449 1.14736e-003  1372  2384  -2.87   0.10  -0.20  -10.79   15.66   44.61  1.100 -0.550 0 2 0 2  0.417  0.417 330.91    0.00     0.00    0.00   1   90.00     0    0    0   110 2400.0  1   1    8    0   0.000    0.000    0.000  1
 75   1    1  1 0 0    74  16    79  576  576     0.00000   6.28449 1.14736e-003  1379  2397  -2.87   0.10  -0.20  -10.79   15.63   44.06  1.100 -0.550 0 2 0 2  0.417  0.417 330.91    0.00     0.00    0.00   1   90.00     0    0    0   110 2400.0  1   1    8    0   0.000    0.000    0.000  1
 76   1    1  1 0 0    75  16    79  576  576     0.00000   6.28449 1.14736e-003  1389  2414  -2.87   0.10  -0.20  -10.79   15.60   43.51  1.100 -0.550 0 2 0 2  0.417  0.417 330.91    0.00     0.00    0.00   1   90.00     0    0    0   110 2400.0  1   1    8    0   0.000    0.000    0.000  1
 77   1    1  1 0 0    76  16    79  576  576     0.00000   6.28449 1.14736e-003  1400  2433  -2.87   0.10  -0.20  -10.79   15.58   42.96  1.100 -0.550 0 2 0 2  0.417  0.417 330.91    0.00     0.00    0.00   1   90.00     0    0    0   110 2400.0  1   1    8    0   0.000    0.000    0.000  1
 78   1    1  1 0 0    77  16    79  576  576     0.00000   6.28449 1.14736e-003  1407  2446  -2.87   0.10  -0.20  -10.79   15.55   42.41  1.100 -0.550 0 2 0 2  0.417  0.417 330.91    0.00     0.00    0.00   1   90.00     0    0    0   110 2400.0  1   1    8    0   0.000    0.000    0.000  1
 79   1    1  1 0 0    78  16    79  576  576     0.00000   6.28449 1.14736e-003  1427  2481  -2.87   0.10  -0.20  -10.79   15.52   41.87  1.100 -0.550 0 2 0 2  0.417  0.417 330.91    0.00     0.00    0.00   1   90.00     0    0    0   110 2400.0  1   1    8    0   0.000    0.000    0.000  1
 80   1    1  1 0 0    79  16    79  576  576     0.00000   6.28449 1.14736e-003  1437  2498  -2.87   0.10  -0.20  -10.79   15.49   41.32  1.100 -0.550 0 2 0 2  0.417  0.417 330.91    0.00     0.00    0.00   1   90.00     0    0    0   110 2400.0  1   1    8    0   0.000    0.000    0.000  1
 81   1    1  1 0 0    80  16    79  576  576     0.00000   6.28449 1.14736e-003  1442  2507  -2.87   0.10  -0.20  -10.80   15.47   40.77  1.100 -0.550 0 2 0 2  0.417  0.417 330.91    0.00     0.00    0.00   1   90.00     0    0    0   110 2400.0  1   1    8    0   0.000    0.000    0.000  1
 82   1    1  1 0 0    81  16    79  576  576     0.00000   6.28449 1.14736e-003  1446  2514  -2.87   0.10  -0.20  -10.80   15.44   40.22  1.100 -0.550 0 2 0 2  0.417  0.417 330.91    0.00     0.00    0.00   1   90.00     0    0    0   110 2400.0  1   1    8    0   0.000    0.000    0.000  1
 83   1    1  1 0 0    82  16    79  576  576     0.00000   6.28449 1.14736e-003  1448  2518  -2.87   0.10  -0.20  -10.80   15.41   39.67  1.100 -0.550 0 2 0 2  0.417  0.417 330.91    0.00     0.00    0.00   1   90.00     0    0    0   110 2400.0  1   1    8    0   0.000    0.000    0.000  1
 84   1    1  1 0 0    83  16    79  576  576     0.00000   6.28449 1.14736e-003  1449  2520  -2.87   0.10  -0.20  -10.80   15.38   39.12  1.100 -0.550 0 2 0 2  0.417  0.417 330.91    0.00     0.00    0.00   1   90.00     0    0    0   110 2400.0  1   1    8    0   0.000    0.000    0.000  1
