# === DATA DESCRIPTION FILE ======================================================
#
# CAUTION - Investigational device.
# Limited by Federal Law to investigational use.
#
#
# CLINICAL TRYOUT             Research image export tool     V4.2
#
# === GENERAL INFORMATION ========================================================
#
.    Protocol name                      :   WIP 3D FLAIR Sag UMich SENSE
.    Series Type                        :   Image   MRSERIES
.    Acquisition nr                     :   5
.    Reconstruction nr                  :   1
.    Scan Duration [sec]                :   528
.    Max. number of cardiac phases      :   1
.    Max. number of echoes              :   1
.    Max. number of slices/locations    :   327
.    Max. number of dynamics            :   1
.    Max. number of mixes               :   1
.    Patient position                   :   Head First Supine
.    Preparation direction              :   Anterior-Posterior
.    Technique                          :   TIR
.    Scan resolution  (x, y)            :   216  220
.    Scan mode                          :   3D
.    Repetition time [ms]               :   8000.000  
.    FOV (ap,fh,rl) [mm]                :   240.000  200.000  179.850
.    Water Fat shift [pixels]           :   0.858
.    Angulation midslice(ap,fh,rl)[degr]:   -4.411  4.009  -0.000
.    Off Centre midslice(ap,fh,rl) [mm] :   -10.790  11.741  -0.924
.    Flow compensation <0=no 1=yes> ?   :   1
.    Presaturation     <0=no 1=yes> ?   :   0
.    Phase encoding velocity [cm/sec]   :   0.000000  0.000000  0.000000
.    MTC               <0=no 1=yes> ?   :   0
.    SPIR              <0=no 1=yes> ?   :   1
.    EPI factor        <0,1=no EPI>     :   1
.    Dynamic scan      <0=no 1=yes> ?   :   0
.    Diffusion         <0=no 1=yes> ?   :   0
.    Diffusion echo time [ms]           :   0.0000
.    Max. number of diffusion values    :   1
.    Max. number of gradient orients    :   1
.    Number of label types   <0=no ASL> :   0
#
# === PIXEL VALUES =============================================================
#  PV = pixel value in REC file, FP = floating point value, DV = displayed value on console
#  RS = rescale slope,           RI = rescale intercept,    SS = scale slope
#  DV = PV * RS + RI             FP = DV / (RS * SS)
#
# === IMAGE INFORMATION DEFINITION =============================================
#  The rest of this file contains ONE line per image, this line contains the following information:
#
#  slice number                             (integer)
#  echo number                              (integer)
#  dynamic scan number                      (integer)
#  cardiac phase number                     (integer)
#  image_type_mr                            (integer)
#  scanning sequence                        (integer)
#  index in REC file (in images)            (integer)
#  image pixel size (in bits)               (integer)
#  scan percentage                          (integer)
#  recon resolution (x y)                   (2*integer)
#  rescale intercept                        (float)
#  rescale slope                            (float)
#  scale slope                              (float)
#  window center                            (integer)
#  window width                             (integer)
#  image angulation (ap,fh,rl in degrees )  (3*float)
#  image offcentre (ap,fh,rl in mm )        (3*float)
#  slice thickness (in mm )                 (float)
#  slice gap (in mm )                       (float)
#  image_display_orientation                (integer)
#  slice orientation ( TRA/SAG/COR )        (integer)
#  fmri_status_indication                   (integer)
#  image_type_ed_es  (end diast/end syst)   (integer)
#  pixel spacing (x,y) (in mm)              (2*float)
#  echo_time                                (float)
#  dyn_scan_begin_time                      (float)
#  trigger_time                             (float)
#  diffusion_b_factor                       (float)
#  number of averages                       (integer)
#  image_flip_angle (in degrees)            (float)
#  cardiac frequency   (bpm)                (integer)
#  minimum RR-interval (in ms)              (integer)
#  maximum RR-interval (in ms)              (integer)
#  TURBO factor  <0=no turbo>               (integer)
#  Inversion delay (in ms)                  (float)
#  diffusion b value number    (imagekey!)  (integer)
#  gradient orientation number (imagekey!)  (integer)
#  contrast type                            (string)
#  diffusion anisotropy type                (string)
#  diffusion (ap, fh, rl)                   (3*float)
#  label type (ASL)            (imagekey!)  (integer)
#
# === IMAGE INFORMATION ==========================================================
#  sl ec  dyn ph ty    idx pix scan% rec size                (re)scale              window        angulation              offcentre        thick   gap   info      spacing     echo     dtime   ttime    diff  avg  flip    freq   RR-int  turbo delay b grad cont anis         diffusion       L.ty

  1   1    1  1 0 0     0  16    79  576  576     0.00000   5.57070 1.10932e-003     6    10  -4.41   4.01  -0.00   -4.52   18.62   88.24  1.100 -0.550 0 2 0 2  0.417  0.417 330.52    0.00     0.00    0.00   1   90.00     0    0    0   110 2400.0  1   1    8    0   0.000    0.000    0.000  1
  2   1    1  1 0 0     1  16    79  576  576     0.00000   5.57070 1.10932e-003    21    36  -4.41   4.01  -0.00   -4.56   18.58   87.69  1.100 -0.550 0 2 0 2  0.417  0.417 330.52    0.00     0.00    0.00   1   90.00     0    0    0   110 2400.0  1   1    8    0   0.000    0.000    0.000  1
  3   1    1  1 0 0     2  16    79  576  576     0.00000   5.57070 1.10932e-003    22    39  -4.41   4.01  -0.00   -4.60   18.53   87.15  1.100 -0.550 0 2 0 2  0.417  0.417 330.52    0.00     0.00    0.00   1   90.00     0    0    0   110 2400.0  1   1    8    0   0.000    0.000    0.000  1
  4   1    1  1 0 0     3  16    79  576  576     0.00000   5.57070 1.10932e-003    23    39  -4.41   4.01  -0.00   -4.64   18.49   86.60  1.100 -0.550 0 2 0 2  0.417  0.417 330.52    0.00     0.00    0.00   1   90.00     0    0    0   110 2400.0  1   1    8    0   0.000    0.000    0.000  1
  5   1    1  1 0 0     4  16    79  576  576     0.00000   5.57070 1.10932e-003    22    39  -4.41   4.01  -0.00   -4.68   18.45   86.05  1.100 -0.550 0 2 0 2  0.417  0.417 330.52    0.00     0.00    0.00   1   90.00     0    0    0   110 2400.0  1   1    8    0   0.000    0.000    0.000  1
  6   1    1  1 0 0     5  16    79  576  576     0.00000   5.57070 1.10932e-003    24    41  -4.41   4.01  -0.00   -4.71   18.41   85.51  1.100 -0.550 0 2 0 2  0.417  0.417 330.52    0.00     0.00    0.00   1   90.00     0    0    0   110 2400.0  1   1    8    0   0.000    0.000    0.000  1
  7   1    1  1 0 0     6  16    79  576  576     0.00000   5.57070 1.10932e-003    23    41  -4.41   4.01  -0.00   -4.75   18.37   84.96  1.100 -0.550 0 2 0 2  0.417  0.417 330.52    0.00     0.00    0.00   1   90.00     0    0    0   110 2400.0  1   1    8    0   0.000    0.000    0.000  1
  8   1    1  1 0 0     7  16    79  576  576     0.00000   5.57070 1.10932e-003    26    45  -4.41   4.01  -0.00   -4.79   18.32   84.41  1.100 -0.550 0 2 0 2  0.417  0.417 330.52    0.00     0.00    0.00   1   90.00     0    0    0   110 2400.0  1   1    8    0   0.000    0.000    0.000  1
  9   1    1  1 0 0     8  16    79  576  576     0.00000   5.57070 1.10932e-003    27    48  -4.41   4.01  -0.00   -4.83   18.28   83.87  1.100 -0.550 0 2 0 2  0.417  0.417 330.52    0.00     0.00    0.00   1   90.00     0    0    0   110 2400.0  1   1    8    0   0.000    0.000    0.000  1
 10   1    1  1 0 0     9  16    79  576  576     0.00000   5.57070 1.10932e-003    28    49  -4.41   4.01  -0.00   -4.87   18.24   83.32  1.100 -0.550 0 2 0 2  0.417  0.417 330.52    0.00     0.00    0.00   1   90.00     0    0    0   110 2400.0  1   1    8    0   0.000    0.000    0.000  1
 11   1    1  1 0 0    10  16    79  576  576     0.00000   5.57070 1.10932e-003    30    53  -4.41   4.01  -0.00   -4.91   18.20   82.77  1.100 -0.550 0 2 0 2  0.417  0.417 330.52    0.00     0.00    0.00   1   90.00     0    0    0   110 2400.0  1   1    8    0   0.000    0.000    0.000  1
 12   1    1  1 0 0    11  16    79  576  576     0.00000   5.57070 1.10932e-003    29    50  -4.41   4.01  -0.00   -4.94   18.15   82.22  1.100 -0.550 0 2 0 2  0.417  0.417 330.52    0.00     0.00    0.00   1   90.00     0    0    0   110 2400.0  1   1    8    0   0.000    0.000    0.000  1
 13   1    1  1 0 0    12  16    79  576  576     0.00000   5.57070 1.10932e-003    30    51  -4.41   4.01  -0.00   -4.98   18.11   81.68  1.100 -0.550 0 2 0 2  0.417  0.417 330.52    0.00     0.00    0.00   1   90.00     0    0    0   110 2400.0  1   1    8    0   0.000    0.000    0.000  1
 14   1    1  1 0 0    13  16    79  576  576     0.00000   5.57070 1.10932e-003    28    48  -4.41   4.01  -0.00   -5.02   18.07   81.13  1.100 -0.550 0 2 0 2  0.417  0.417 330.52    0.00     0.00    0.00   1   90.00     0    0    0   110 2400.0  1   1    8    0   0.000    0.000    0.000  1
 15   1    1  1 0 0    14  16    79  576  576     0.00000   5.57070 1.10932e-003    29    50  -4.41   4.01  -0.00   -5.06   18.03   80.58  1.100 -0.550 0 2 0 2  0.417  0.417 330.52    0.00     0.00    0.00   1   90.00     0    0    0   110 2400.0  1   1    8    0   0.000    0.000    0.000  1
 16   1    1  1 0 0    15  16    79  576  576     0.00000   5.57070 1.10932e-003    29    51  -4.41   4.01  -0.00   -5.10   17.99   80.04  1.100 -0.550 0 2 0 2  0.417  0.417 330.52    0.00     0.00    0.00   1   90.00     0    0    0   110 2400.0  1   1    8    0   0.000    0.000    0.000  1
 17   1    1  1 0 0    16  16    79  576  576     0.00000   5.57070 1.10932e-003    30    51  -4.41   4.01  -0.00   -5.14   17.94   79.49  1.100 -0.550 0 2 0 2  0.417  0.417 330.52    0.00     0.00    0.00   1   90.00     0    0    0   110 2400.0  1   1    8    0   0.000    0.000    0.000  1
 18   1    1  1 0 0    17  16    79  576  576     0.00000   5.57070 1.10932e-003    28    49  -4.41   4.01  -0.00   -5.18   17.90   78.94  1.100 -0.550 0 2 0 2  0.417  0.417 330.52    0.00     0.00    0.00   1   90.00     0    0    0   110 2400.0  1   1    8    0   0.000    0.000    0.000  1
 19   1    1  1 0 0    18  16    79  576  576     0.00000   5.57070 1.10932e-003    29    50  -4.41   4.01  -0.00   -5.21   17.86   78.40  1.100 -0.550 0 2 0 2  0.417  0.417 330.52    0.00     0.00    0.00   1   90.00     0    0    0   110 2400.0  1   1    8    0   0.000    0.000    0.000  1
 20   1    1  1 0 0    19  16    79  576  576     0.00000   5.57070 1.10932e-003    32    56  -4.41   4.01  -0.00   -5.25   17.82   77.85  1.100 -0.550 0 2 0 2  0.417  0.417 330.52    0.00     0.00    0.00   1   90.00     0    0    0   110 2400.0  1   1    8    0   0.000    0.000    0.000  1
 21   1    1  1 0 0    20  16    79  576  576     0.00000   5.57070 1.10932e-003    34    59  -4.41   4.01  -0.00   -5.29   17.78   77.30  1.100 -0.550 0 2 0 2  0.417  0.417 330.52    0.00     0.00    0.00   1   90.00     0    0    0   110 2400.0  1   1    8    0   0.000    0.000    0.000  1
 22   1    1  1 0 0    21  16    79  576  576     0.00000   5.57070 1.10932e-003    36    62  -4.41   4.01  -0.00   -5.33   17.73   76.75  1.100 -0.550 0 2 0 2  0.417  0.417 330.52    0.00     0.00    0.00   1   90.00     0    0    0   110 2400.0  1   1    8    0   0.000    0.000    0.000  1
 23   1    1  1 0 0    22  16    79  576  576     0.00000   5.57070 1.10932e-003    40    70  -4.41   4.01  -0.00   -5.37   17.69   76.21  1.100 -0.550 0 2 0 2  0.417  0.417 330.52    0.00     0.00    0.00   1   90.00     0    0    0   110 2400.0  1   1    8    0   0.000    0.000    0.000  1
 24   1    1  1 0 0    23  16    79  576  576     0.00000   5.57070 1.10932e-003    80   140  -4.41   4.01  -0.00   -5.41   17.65   75.66  1.100 -0.550 0 2 0 2  0.417  0.417 330.52    0.00     0.00    0.00   1   90.00     0    0    0   110 2400.0  1   1    8    0   0.000    0.000    0.000  1
 25   1    1  1 0 0    24  16    79  576  576     0.00000   5.57070 1.10932e-003   144   251  -4.41   4.01  -0.00   -5.44   17.61   75.11  1.100 -0.550 0 2 0 2  0.417  0.417 330.52    0.00     0.00    0.00   1   90.00     0    0    0   110 2400.0  1   1    8    0   0.000    0.000    0.000  1
 26   1    1  1 0 0    25  16    79  576  576     0.00000   5.57070 1.10932e-003   205   357  -4.41   4.01  -0.00   -5.48   17.56   74.57  1.100 -0.550 0 2 0 2  0.417  0.417 330.52    0.00     0.00    0.00   1   90.00     0    0    0   110 2400.0  1   1    8    0   0.000    0.000    0.000  1
 27   1    1  1 0 0    26  16    79  576  576     0.00000   5.57070 1.10932e-003   255   444  -4.41   4.01  -0.00   -5.52   17.52   74.02  1.100 -0.550 0 2 0 2  0.417  0.417 330.52    0.00     0.00    0.00   1   90.00     0    0    0   110 2400.0  1   1    8    0   0.000    0.000    0.000  1
 28   1    1  1 0 0    27  16    79  576  576     0.00000   5.57070 1.10932e-003   292   508  -4.41   4.01  -0.00   -5.56   17.48   73.47  1.100 -0.550 0 2 0 2  0.417  0.417 330.52    0.00     0.00    0.00   1   90.00     0    0    0   110 2400.0  1   1    8    0   0.000    0.000    0.000  1
 29   1    1  1 0 0    28  16    79  576  576     0.00000   5.57070 1.10932e-003   317   551  -4.41   4.01  -0.00   -5.60   17.44   72.92  1.100 -0.550 0 2 0 2  0.417  0.417 330.52    0.00     0.00    0.00   1   90.00     0    0    0   110 2400.0  1   1    8    0   0.000    0.000    0.000  1
 30   1    1  1 0 0    29  16    79  576  576     0.00000   5.57070 1.10932e-003   347   604  -4.41   4.01  -0.00   -5.64   17.40   72.38  1.100 -0.550 0 2 0 2  0.417  0.417 330.52    0.00     0.00    0.00   1   90.00     0    0    0   110 2400.0  1   1    8    0   0.000    0.000    0.000  1
 31   1    1  1 0 0    30  16    79  576  576     0.00000   5.57070 1.10932e-003   379   659  -4.41   4.01  -0.00   -5.68   17.35   71.83  1.100 -0.550 0 2 0 2  0.417  0.417 330.52    0.00     0.00    0.00   1   90.00     0    0    0   110 2400.0  1   1    8    0   0.000    0.000    0.000  1
 32   1    1  1 0 0    31  16    79  576  576     0.00000   5.57070 1.10932e-003   363   631  -4.41   4.01  -0.00   -5.71   17.31   71.28  1.100 -0.550 0 2 0 2  0.417  0.417 330.52    0.00     0.00    0.00   1   90.00     0    0    0   110 2400.0  1   1    8    0   0.000    0.000    0.000  1
 33   1    1  1 0 0    32  16    79  576  576     0.00000   5.57070 1.10932e-003   375   651  -4.41   4.01  -0.00   -5.75   17.27   70.74  1.100 -0.550 0 2 0 2  0.417  0.417 330.52    0.00     0.00    0.00   1   90.00     0    0    0   110 2400.0  1   1    8    0   0.000    0.000    0.000  1
 34   1    1  1 0 0    33  16    79  576  576     0.00000   5.57070 1.10932e-003   385   670  -4.41   4.01  -0.00   -5.79   17.23   70.19  1.100 -0.550 0 2 0 2  0.417  0.417 330.52    0.00     0.00    0.00   1   90.00     0    0    0   110 2400.0  1   1    8    0   0.000    0.000    0.000  1
 35   1    1  1 0 0    34  16    79  576  576     0.00000   5.57070 1.10932e-003   422   734  -4.41   4.01  -0.00   -5.83   17.18   69.64  1.100 -0.550 0 2 0 2  0.417  0.417 330.52    0.00     0.00    0.00   1   90.00     0    0    0   110 2400.0  1   1    8    0   0.000    0.000    0.000  1
 36   1    1  1 0 0    35  16    79  576  576     0.00000   5.57070 1.10932e-003   449   781  -4.41   4.01  -0.00   -5.87   17.14   69.10  1.100 -0.550 0 2 0 2  0.417  0.417 330.52    0.00     0.00    0.00   1   90.00     0    0    0   110 2400.0  1   1    8    0   0.000    0.000    0.000  1
 37   1    1  1 0 0    36  16    79  576  576     0.00000   5.57070 1.10932e-003   455   791  -4.41   4.01  -0.00   -5.91   17.10   68.55  1.100 -0.550 0 2 0 2  0.417  0.417 330.52    0.00     0.00    0.00   1   90.00     0    0    0   110 2400.0  1   1    8    0   0.000    0.000    0.000  1
 38   1    1  1 0 0    37  16    79  576  576     0.00000   5.57070 1.10932e-003   498   866  -4.41   4.01  -0.00   -5.94   17.06   68.00  1.100 -0.550 0 2 0 2  0.417  0.417 330.52    0.00     0.00    0.00   1   90.00     0    0    0   110 2400.0  1   1    8    0   0.000    0.000    0.000  1
 39   1    1  1 0 0    38  16    79  576  576     0.00000   5.57070 1.10932e-003   482   838  -4.41   4.01  -0.00   -5.98   17.02   67.45  1.100 -0.550 0 2 0 2  0.417  0.417 330.52    0.00     0.00    0.00   1   90.00     0    0    0   110 2400.0  1   1    8    0   0.000    0.000    0.000  1
 40   1    1  1 0 0    39  16    79  576  576     0.00000   5.57070 1.10932e-003   439   763  -4.41   4.01  -0.00   -6.02   16.97   66.91  1.100 -0.550 0 2 0 2  0.417  0.417 330.52    0.00     0.00    0.00   1   90.00     0    0    0   110 2400.0  1   1    8    0   0.000    0.000    0.000  1
 41   1    1  1 0 0    40  16    79  576  576     0.00000   5.57070 1.10932e-003   447   778  -4.41   4.01  -0.00   -6.06   16.93   66.36  1.100 -0.550 0 2 0 2  0.417  0.417 330.52    0.00     0.00    0.00   1   90.00     0    0    0   110 2400.0  1   1    8    0   0.000    0.000    0.000  1
 42   1    1  1 0 0    41  16    79  576  576     0.00000   5.57070 1.10932e-003   481   836  -4.41   4.01  -0.00   -6.10   16.89   65.81  1.100 -0.550 0 2 0 2  0.417  0.417 330.52    0.00     0.00    0.00   1   90.00     0    0    0   110 2400.0  1   1    8    0   0.000    0.000    0.000  1
 43   1    1  1 0 0    42  16    79  576  576     0.00000   5.57070 1.10932e-003   508   883  -4.41   4.01  -0.00   -6.14   16.85   65.27  1.100 -0.550 0 2 0 2  0.417  0.417 330.52    0.00     0.00    0.00   1   90.00     0    0    0   110 2400.0  1   1    8    0   0.000    0.000    0.000  1
 44   1    1  1 0 0    43  16    79  576  576     0.00000   5.57070 1.10932e-003   524   912  -4.41   4.01  -0.00   -6.18   16.80   64.72  1.100 -0.550 0 2 0 2  0.417  0.417 330.52    0.00     0.00    0.00   1   90.00     0    0    0   110 2400.0  1   1    8    0   0.000    0.000    0.000  1
 45   1    1  1 0 0    44  16    79  576  576     0.00000   5.57070 1.10932e-003   538   935  -4.41   4.01  -0.00   -6.21   16.76   64.17  1.100 -0.550 0 2 0 2  0.417  0.417 330.52    0.00     0.00    0.00   1   90.00     0    0    0   110 2400.0  1   1    8    0   0.000    0.000    0.000  1
 46   1    1  1 0 0    45  16    79  576  576     0.00000   5.57070 1.10932e-003   543   943  -4.41   4.01  -0.00   -6.25   16.72   63.63  1.100 -0.550 0 2 0 2  0.417  0.417 330.52    0.00     0.00    0.00   1   90.00     0    0    0   110 2400.0  1   1    8    0   0.000    0.000    0.000  1
 47   1    1  1 0 0    46  16    79  576  576     0.00000   5.57070 1.10932e-003   592  1028  -4.41   4.01  -0.00   -6.29   16.68   63.08  1.100 -0.550 0 2 0 2  0.417  0.417 330.52    0.00     0.00    0.00   1   90.00     0    0    0   110 2400.0  1   1    8    0   0.000    0.000    0.000  1
 48   1    1  1 0 0    47  16    79  576  576     0.00000   5.57070 1.10932e-003   585  1016  -4.41   4.01  -0.00   -6.33   16.64   62.53  1.100 -0.550 0 2 0 2  0.417  0.417 330.52    0.00     0.00    0.00   1   90.00     0    0    0   110 2400.0  1   1    8    0   0.000    0.000    0.000  1
 49   1    1  1 0 0    48  16    79  576  576     0.00000   5.57070 1.10932e-003   598  1039  -4.41   4.01  -0.00   -6.37   16.59   61.98  1.100 -0.550 0 2 0 2  0.417  0.417 330.52    0.00     0.00    0.00   1   90.00     0    0    0   110 2400.0  1   1    8    0   0.000    0.000    0.000  1
 50   1    1  1 0 0    49  16    79  576  576     0.00000   5.57070 1.10932e-003   586  1019  -4.41   4.01  -0.00   -6.41   16.55   61.44  1.100 -0.550 0 2 0 2  0.417  0.417 330.52    0.00     0.00    0.00   1   90.00     0    0    0   110 2400.0  1   1    8    0   0.000    0.000    0.000  1
 51   1    1  1 0 0    50  16    79  576  576     0.00000   5.57070 1.10932e-003   576  1001  -4.41   4.01  -0.00   -6.44   16.51   60.89  1.100 -0.550 0 2 0 2  0.417  0.417 330.52    0.00     0.00    0.00   1   90.00     0    0    0   110 2400.0  1   1    8    0   0.000    0.000    0.000  1
 52   1    1  1 0 0    51  16    79  576  576     0.00000   5.57070 1.10932e-003   588  1022  -4.41   4.01  -0.00   -6.48   16.47   60.34  1.100 -0.550 0 2 0 2  0.417  0.417 330.52    0.00     0.00    0.00   1   90.00     0    0    0   110 2400.0  1   1    8    0   0.000    0.000    0.000  1
 53   1    1  1 0 0    52  16    79  576  576     0.00000   5.57070 1.10932e-003   591  1027  -4.41   4.01  -0.00   -6.52   16.42   59.80  1.100 -0.550 0 2 0 2  0.417  0.417 330.52    0.00     0.00    0.00   1   90.00     0    0    0   110 2400.0  1   1    8    0   0.000    0.000    0.000  1
 54   1    1  1 0 0    53  16    79  576  576     0.00000   5.57070 1.10932e-003   592  1030  -4.41   4.01  -0.00   -6.56   16.38   59.25  1.100 -0.550 0 2 0 2  0.417  0.417 330.52    0.00     0.00    0.00   1   90.00     0    0    0   110 2400.0  1   1    8    0   0.000    0.000    0.000  1
 55   1    1  1 0 0    54  16    79  576  576     0.00000   5.57070 1.10932e-003   592  1029  -4.41   4.01  -0.00   -6.60   16.34   58.70  1.100 -0.550 0 2 0 2  0.417  0.417 330.52    0.00     0.00    0.00   1   90.00     0    0    0   110 2400.0  1   1    8    0   0.000    0.000    0.000  1
 56   1    1  1 0 0    55  16    79  576  576     0.00000   5.57070 1.10932e-003   599  1041  -4.41   4.01  -0.00   -6.64   16.30   58.16  1.100 -0.550 0 2 0 2  0.417  0.417 330.52    0.00     0.00    0.00   1   90.00     0    0    0   110 2400.0  1   1    8    0   0.000    0.000    0.000  1
 57   1    1  1 0 0    56  16    79  576  576     0.00000   5.57070 1.10932e-003   599  1041  -4.41   4.01  -0.00   -6.68   16.26   57.61  1.100 -0.550 0 2 0 2  0.417  0.417 330.52    0.00     0.00    0.00   1   90.00     0    0    0   110 2400.0  1   1    8    0   0.000    0.000    0.000  1
 58   1    1  1 0 0    57  16    79  576  576     0.00000   5.57070 1.10932e-003   603  1048  -4.41   4.01  -0.00   -6.71   16.21   57.06  1.100 -0.550 0 2 0 2  0.417  0.417 330.52    0.00     0.00    0.00   1   90.00     0    0    0   110 2400.0  1   1    8    0   0.000    0.000    0.000  1
 59   1    1  1 0 0    58  16    79  576  576     0.00000   5.57070 1.10932e-003   612  1063  -4.41   4.01  -0.00   -6.75   16.17   56.51  1.100 -0.550 0 2 0 2  0.417  0.417 330.52    0.00     0.00    0.00   1   90.00     0    0    0   110 2400.0  1   1    8    0   0.000    0.000    0.000  1
 60   1    1  1 0 0    59  16    79  576  576     0.00000   5.57070 1.10932e-003   611  1063  -4.41   4.01  -0.00   -6.79   16.13   55.97  1.100 -0.550 0 2 0 2  0.417  0.417 330.52    0.00     0.00    0.00   1   90.00     0    0    0   110 2400.0  1   1    8    0   0.000    0.000    0.000  1
 61   1    1  1 0 0    60  16    79  576  576     0.00000   5.57070 1.10932e-003   621  1079  -4.41   4.01  -0.00   -6.83   16.09   55.42  1.100 -0.550 0 2 0 2  0.417  0.417 330.52    0.00     0.00    0.00   1   90.00     0    0    0   110 2400.0  1   1    8    0   0.000    0.000    0.000  1
 62   1    1  1 0 0    61  16    79  576  576     0.00000   5.57070 1.10932e-003   650  1129  -4.41   4.01  -0.00   -6.87   16.05   54.87  1.100 -0.550 0 2 0 2  0.417  0.417 330.52    0.00     0.00    0.00   1   90.00     0    0    0   110 2400.0  1   1    8    0   0.000    0.000    0.000  1
 63   1    1  1 0 0    62  16    79  576  576     0.00000   5.57070 1.10932e-003   688  1196  -4.41   4.01  -0.00   -6.91   16.00   54.33  1.100 -0.550 0 2 0 2  0.417  0.417 330.52    0.00     0.00    0.00   1   90.00     0    0    0   110 2400.0  1   1    8    0   0.000    0.000    0.000  1
 64   1    1  1 0 0    63  16    79  576  576     0.00000   5.57070 1.10932e-003   726  1262  -4.41   4.01  -0.00   -6.94   15.96   53.78  1.100 -0.550 0 2 0 2  0.417  0.417 330.52    0.00     0.00    0.00   1   90.00     0    0    0   110 2400.0  1   1    8    0   0.000    0.000    0.000  1
 65   1    1  1 0 0    64  16    79  576  576     0.00000   5.57070 1.10932e-003   792  1377  -4.41   4.01  -0.00   -6.98   15.92   53.23  1.100 -0.550 0 2 0 2  0.417  0.417 330.52    0.00     0.00    0.00   1   90.00     0    0    0   110 2400.0  1   1    8    0   0.000    0.000    0.000  1
 66   1    1  1 0 0    65  16    79  576  576     0.00000   5.57070 1.10932e-003   839  1459  -4.41   4.01  -0.00   -7.02   15.88   52.68  1.100 -0.550 0 2 0 2  0.417  0.417 330.52    0.00     0.00    0.00   1   90.00     0    0    0   110 2400.0  1   1    8    0   0.000    0.000    0.000  1
 67   1    1  1 0 0    66  16    79  576  576     0.00000   5.57070 1.10932e-003   892  1551  -4.41   4.01  -0.00   -7.06   15.83   52.14  1.100 -0.550 0 2 0 2  0.417  0.417 330.52    0.00     0.00    0.00   1   90.00     0    0    0   110 2400.0  1   1    8    0   0.000    0.000    0.000  1
 68   1    1  1 0 0    67  16    79  576  576     0.00000   5.57070 1.10932e-003   936  1628  -4.41   4.01  -0.00   -7.10   15.79   51.59  1.100 -0.550 0 2 0 2  0.417  0.417 330.52    0.00     0.00    0.00   1   90.00     0    0    0   110 2400.0  1   1    8    0   0.000    0.000    0.000  1
 69   1    1  1 0 0    68  16    79  576  576     0.00000   5.57070 1.10932e-003   979  1702  -4.41   4.01  -0.00   -7.14   15.75   51.04  1.100 -0.550 0 2 0 2  0.417  0.417 330.52    0.00     0.00    0.00   1   90.00     0    0    0   110 2400.0  1   1    8    0   0.000    0.000    0.000  1
 70   1    1  1 0 0    69  16    79  576  576     0.00000   5.57070 1.10932e-003  1045  1817  -4.41   4.01  -0.00   -7.17   15.71   50.50  1.100 -0.550 0 2 0 2  0.417  0.417 330.52    0.00     0.00    0.00   1   90.00     0    0    0   110 2400.0  1   1    8    0   0.000    0.000    0.000  1
 71   1    1  1 0 0    70  16    79  576  576     0.00000   5.57070 1.10932e-003  1091  1896  -4.41   4.01  -0.00   -7.21   15.67   49.95  1.100 -0.550 0 2 0 2  0.417  0.417 330.52    0.00     0.00    0.00   1   90.00     0    0    0   110 2400.0  1   1    8    0   0.000    0.000    0.000  1
 72   1    1  1 0 0    71  16    79  576  576     0.00000   5.57070 1.10932e-003  1109  1928  -4.41   4.01  -0.00   -7.25   15.62   49.40  1.100 -0.550 0 2 0 2  0.417  0.417 330.52    0.00     0.00    0.00   1   90.00     0    0    0   110 2400.0  1   1    8    0   0.000    0.000    0.000  1
 73   1    1  1 0 0    72  16    79  576  576     0.00000   5.57070 1.10932e-003  1150  1999  -4.41   4.01  -0.00   -7.29   15.58   48.86  1.100 -0.550 0 2 0 2  0.417  0.417 330.52    0.00     0.00    0.00   1   90.00     0    0    0   110 2400.0  1   1    8    0   0.000    0.000    0.000  1
 74   1    1  1 0 0    73  16    79  576  576     0.00000   5.57070 1.10932e-003  1186  2061  -4.41   4.01  -0.00   -7.33   15.54   48.31  1.100 -0.550 0 2 0 2  0.417  0.417 330.52    0.00     0.00    0.00   1   90.00     0    0    0   110 2400.0  1   1    8    0   0.000    0.000    0.000  1
 75   1    1  1 0 0    74  16    79  576  576     0.00000   5.57070 1.10932e-003  1229  2136  -4.41   4.01  -0.00   -7.37   15.50   47.76  1.100 -0.550 0 2 0 2  0.417  0.417 330.52    0.00     0.00    0.00   1   90.00     0    0    0   110 2400.0  1   1    8    0   0.000    0.000    0.000  1
 76   1    1  1 0 0    75  16    79  576  576     0.00000   5.57070 1.10932e-003  1256  2184  -4.41   4.01  -0.00   -7.41   15.45   47.21  1.100 -0.550 0 2 0 2  0.417  0.417 330.52    0.00     0.00    0.00   1   90.00     0    0    0   110 2400.0  1   1    8    0   0.000    0.000    0.000  1
 77   1    1  1 0 0    76  16    79  576  576     0.00000   5.57070 1.10932e-003  1287  2237  -4.41   4.01  -0.00   -7.44   15.41   46.67  1.100 -0.550 0 2 0 2  0.417  0.417 330.52    0.00     0.00    0.00   1   90.00     0    0    0   110 2400.0  1   1    8    0   0.000    0.000    0.000  1
 78   1    1  1 0 0    77  16    79  576  576     0.00000   5.57070 1.10932e-003  1303  2265  -4.41   4.01  -0.00   -7.48   15.37   46.12  1.100 -0.550 0 2 0 2  0.417  0.417 330.52    0.00     0.00    0.00   1   90.00     0    0    0   110 2400.0  1   1    8    0   0.000    0.000    0.000  1
 79   1    1  1 0 0    78  16    79  576  576     0.00000   5.57070 1.10932e-003  1307  2271  -4.41   4.01  -0.00   -7.52   15.33   45.57  1.100 -0.550 0 2 0 2  0.417  0.417 330.52    0.00     0.00    0.00   1   90.00     0    0    0   110 2400.0  1   1    8    0   0.000    0.000    0.000  1
 80   1    1  1 0 0    79  16    79  576  576     0.00000   5.57070 1.10932e-003  1304  2267  -4.41   4.01  -0.00   -7.56   15.29   45.03  1.100 -0.550 0 2 0 2  0.417  0.417 330.52    0.00     0.00    0.00   1   90.00     0    0    0   110 2400.0  1   1    8    0   0.000    0.000    0.000  1
 81   1    1  1 0 0    80  16    79  576  576     0.00000   5.57070 1.10932e-003  1293  2248  -4.41   4.01  -0.00   -7.60   15.24   44.48  1.100 -0.550 0 2 0 2  0.417  0.417 330.52    0.00     0.00    0.00   1   90.00     0    0    0   110 2400.0  1   1    8    0   0.000    0.000    0.000  1
 82   1    1  1 0 0    81  16    79  576  576     0.00000   5.57070 1.10932e-003  1298  2256  -4.41   4.01  -0.00   -7.64   15.20   43.93  1.100 -0.550 0 2 0 2  0.417  0.417 330.52    0.00     0.00    0.00   1   90.00     0    0    0   110 2400.0  1   1    8    0   0.000    0.000    0.000  1
 83   1    1  1 0 0    82  16    79  576  576     0.00000   5.57070 1.10932e-003  1301  2261  -4.41   4.01  -0.00   -7.67   15.16   43.39  1.100 -0.550 0 2 0 2  0.417  0.417 330.52    0.00     0.00    0.00   1   90.00     0    0    0   110 2400.0  1   1    8    0   0.000    0.000    0.000  1
 84   1    1  1 0 0    83  16    79  576  576     0.00000   5.57070 1.10932e-003  1306  2271  -4.41   4.01  -0.00   -7.71   15.12   42.84  1.100 -0.550 0 2 0 2  0.417  0.417 330.52    0.00     0.00    0.00   1   90.00     0    0    0   110 2400.0  1   1    8    0   0.000    0.000    0.000  1
