# === DATA DESCRIPTION FILE ======================================================
#
# CAUTION - Investigational device.
# Limited by Federal Law to investigational use.
#
#
# CLINICAL TRYOUT             Research image export tool     V4.2
#
# === GENERAL INFORMATION ========================================================
#
.    Protocol name                      :   WIP MPrageADNIsag SENSE
.    Series Type                        :   Image   MRSERIES
.    Acquisition nr                     :   3
.    Reconstruction nr                  :   1
.    Scan Duration [sec]                :   356
.    Max. number of cardiac phases      :   1
.    Max. number of echoes              :   1
.    Max. number of slices/locations    :   170
.    Max. number of dynamics            :   1
.    Max. number of mixes               :   1
.    Patient position                   :   Head First Supine
.    Preparation direction              :   Anterior-Posterior
.    Technique                          :   T1TFE
.    Scan resolution  (x, y)            :   256  256
.    Scan mode                          :   3D
.    Repetition time [ms]               :   6.792  
.    FOV (ap,fh,rl) [mm]                :   240.000  256.000  204.000
.    Water Fat shift [pixels]           :   1.802
.    Angulation midslice(ap,fh,rl)[degr]:   -3.531  -2.098  -0.378
.    Off Centre midslice(ap,fh,rl) [mm] :   -9.978  12.984  -0.173
.    Flow compensation <0=no 1=yes> ?   :   0
.    Presaturation     <0=no 1=yes> ?   :   0
.    Phase encoding velocity [cm/sec]   :   0.000000  0.000000  0.000000
.    MTC               <0=no 1=yes> ?   :   0
.    SPIR              <0=no 1=yes> ?   :   0
.    EPI factor        <0,1=no EPI>     :   1
.    Dynamic scan      <0=no 1=yes> ?   :   0
.    Diffusion         <0=no 1=yes> ?   :   0
.    Diffusion echo time [ms]           :   0.0000
.    Max. number of diffusion values    :   1
.    Max. number of gradient orients    :   1
.    Number of label types   <0=no ASL> :   0
#
# === PIXEL VALUES =============================================================
#  PV = pixel value in REC file, FP = floating point value, DV = displayed value on console
#  RS = rescale slope,           RI = rescale intercept,    SS = scale slope
#  DV = PV * RS + RI             FP = DV / (RS * SS)
#
# === IMAGE INFORMATION DEFINITION =============================================
#  The rest of this file contains ONE line per image, this line contains the following information:
#
#  slice number                             (integer)
#  echo number                              (integer)
#  dynamic scan number                      (integer)
#  cardiac phase number                     (integer)
#  image_type_mr                            (integer)
#  scanning sequence                        (integer)
#  index in REC file (in images)            (integer)
#  image pixel size (in bits)               (integer)
#  scan percentage                          (integer)
#  recon resolution (x y)                   (2*integer)
#  rescale intercept                        (float)
#  rescale slope                            (float)
#  scale slope                              (float)
#  window center                            (integer)
#  window width                             (integer)
#  image angulation (ap,fh,rl in degrees )  (3*float)
#  image offcentre (ap,fh,rl in mm )        (3*float)
#  slice thickness (in mm )                 (float)
#  slice gap (in mm )                       (float)
#  image_display_orientation                (integer)
#  slice orientation ( TRA/SAG/COR )        (integer)
#  fmri_status_indication                   (integer)
#  image_type_ed_es  (end diast/end syst)   (integer)
#  pixel spacing (x,y) (in mm)              (2*float)
#  echo_time                                (float)
#  dyn_scan_begin_time                      (float)
#  trigger_time                             (float)
#  diffusion_b_factor                       (float)
#  number of averages                       (integer)
#  image_flip_angle (in degrees)            (float)
#  cardiac frequency   (bpm)                (integer)
#  minimum RR-interval (in ms)              (integer)
#  maximum RR-interval (in ms)              (integer)
#  TURBO factor  <0=no turbo>               (integer)
#  Inversion delay (in ms)                  (float)
#  diffusion b value number    (imagekey!)  (integer)
#  gradient orientation number (imagekey!)  (integer)
#  contrast type                            (string)
#  diffusion anisotropy type                (string)
#  diffusion (ap, fh, rl)                   (3*float)
#  label type (ASL)            (imagekey!)  (integer)
#
# === IMAGE INFORMATION ==========================================================
#  sl ec  dyn ph ty    idx pix scan% rec size                (re)scale              window        angulation              offcentre        thick   gap   info      spacing     echo     dtime   ttime    diff  avg  flip    freq   RR-int  turbo delay b grad cont anis         diffusion       L.ty

  1   1    1  1 0 2     0  16   100  256  256     0.00000   7.36581 2.24822e-004    45    78  -3.53  -2.10  -0.38  -13.65   19.25  100.97  1.200  0.000 0 2 0 2  1.000  1.000   3.14    0.00     0.00    0.00   1    8.00     0    0    0   240   0.0  1   1    7    0   0.000    0.000    0.000  1
  2   1    1  1 0 2     1  16   100  256  256     0.00000   7.36581 2.24822e-004    39    68  -3.53  -2.10  -0.38  -13.61   19.18   99.77  1.200  0.000 0 2 0 2  1.000  1.000   3.14    0.00     0.00    0.00   1    8.00     0    0    0   240   0.0  1   1    7    0   0.000    0.000    0.000  1
  3   1    1  1 0 2     2  16   100  256  256     0.00000   7.36581 2.24822e-004    47    82  -3.53  -2.10  -0.38  -13.56   19.10   98.57  1.200  0.000 0 2 0 2  1.000  1.000   3.14    0.00     0.00    0.00   1    8.00     0    0    0   240   0.0  1   1    7    0   0.000    0.000    0.000  1
  4   1    1  1 0 2     3  16   100  256  256     0.00000   7.36581 2.24822e-004    55    96  -3.53  -2.10  -0.38  -13.52   19.03   97.38  1.200  0.000 0 2 0 2  1.000  1.000   3.14    0.00     0.00    0.00   1    8.00     0    0    0   240   0.0  1   1    7    0   0.000    0.000    0.000  1
  5   1    1  1 0 2     4  16   100  256  256     0.00000   7.36581 2.24822e-004    81   142  -3.53  -2.10  -0.38  -13.48   18.95   96.18  1.200  0.000 0 2 0 2  1.000  1.000   3.14    0.00     0.00    0.00   1    8.00     0    0    0   240   0.0  1   1    7    0   0.000    0.000    0.000  1
  6   1    1  1 0 2     5  16   100  256  256     0.00000   7.36581 2.24822e-004   297   517  -3.53  -2.10  -0.38  -13.43   18.88   94.98  1.200  0.000 0 2 0 2  1.000  1.000   3.14    0.00     0.00    0.00   1    8.00     0    0    0   240   0.0  1   1    7    0   0.000    0.000    0.000  1
  7   1    1  1 0 2     6  16   100  256  256     0.00000   7.36581 2.24822e-004   426   740  -3.53  -2.10  -0.38  -13.39   18.80   93.79  1.200  0.000 0 2 0 2  1.000  1.000   3.14    0.00     0.00    0.00   1    8.00     0    0    0   240   0.0  1   1    7    0   0.000    0.000    0.000  1
  8   1    1  1 0 2     7  16   100  256  256     0.00000   7.36581 2.24822e-004   501   871  -3.53  -2.10  -0.38  -13.35   18.73   92.59  1.200  0.000 0 2 0 2  1.000  1.000   3.14    0.00     0.00    0.00   1    8.00     0    0    0   240   0.0  1   1    7    0   0.000    0.000    0.000  1
  9   1    1  1 0 2     8  16   100  256  256     0.00000   7.36581 2.24822e-004   512   890  -3.53  -2.10  -0.38  -13.30   18.66   91.39  1.200  0.000 0 2 0 2  1.000  1.000   3.14    0.00     0.00    0.00   1    8.00     0    0    0   240   0.0  1   1    7    0   0.000    0.000    0.000  1
 10   1    1  1 0 2     9  16   100  256  256     0.00000   7.36581 2.24822e-004   509   885  -3.53  -2.10  -0.38  -13.26   18.58   90.19  1.200  0.000 0 2 0 2  1.000  1.000   3.14    0.00     0.00    0.00   1    8.00     0    0    0   240   0.0  1   1    7    0   0.000    0.000    0.000  1
 11   1    1  1 0 2    10  16   100  256  256     0.00000   7.36581 2.24822e-004   499   868  -3.53  -2.10  -0.38  -13.21   18.51   89.00  1.200  0.000 0 2 0 2  1.000  1.000   3.14    0.00     0.00    0.00   1    8.00     0    0    0   240   0.0  1   1    7    0   0.000    0.000    0.000  1
 12   1    1  1 0 2    11  16   100  256  256     0.00000   7.36581 2.24822e-004   523   910  -3.53  -2.10  -0.38  -13.17   18.43   87.80  1.200  0.000 0 2 0 2  1.000  1.000   3.14    0.00     0.00    0.00   1    8.00     0    0    0   240   0.0  1   1    7    0   0.000    0.000    0.000  1
 13   1    1  1 0 2    12  16   100  256  256     0.00000   7.36581 2.24822e-004   543   944  -3.53  -2.10  -0.38  -13.13   18.36   86.60  1.200  0.000 0 2 0 2  1.000  1.000   3.14    0.00     0.00    0.00   1    8.00     0    0    0   240   0.0  1   1    7    0   0.000    0.000    0.000  1
 14   1    1  1 0 2    13  16   100  256  256     0.00000   7.36581 2.24822e-004   545   948  -3.53  -2.10  -0.38  -13.08   18.29   85.41  1.200  0.000 0 2 0 2  1.000  1.000   3.14    0.00     0.00    0.00   1    8.00     0    0    0   240   0.0  1   1    7    0   0.000    0.000    0.000  1
 15   1    1  1 0 2    14  16   100  256  256     0.00000   7.36581 2.24822e-004   580  1008  -3.53  -2.10  -0.38  -13.04   18.21   84.21  1.200  0.000 0 2 0 2  1.000  1.000   3.14    0.00     0.00    0.00   1    8.00     0    0    0   240   0.0  1   1    7    0   0.000    0.000    0.000  1
 16   1    1  1 0 2    15  16   100  256  256     0.00000   7.36581 2.24822e-004   568   987  -3.53  -2.10  -0.38  -13.00   18.14   83.01  1.200  0.000 0 2 0 2  1.000  1.000   3.14    0.00     0.00    0.00   1    8.00     0    0    0   240   0.0  1   1    7    0   0.000    0.000    0.000  1
 17   1    1  1 0 2    16  16   100  256  256     0.00000   7.36581 2.24822e-004   575  1000  -3.53  -2.10  -0.38  -12.95   18.06   81.82  1.200  0.000 0 2 0 2  1.000  1.000   3.14    0.00     0.00    0.00   1    8.00     0    0    0   240   0.0  1   1    7    0   0.000    0.000    0.000  1
 18   1    1  1 0 2    17  16   100  256  256     0.00000   7.36581 2.24822e-004   594  1033  -3.53  -2.10  -0.38  -12.91   17.99   80.62  1.200  0.000 0 2 0 2  1.000  1.000   3.14    0.00     0.00    0.00   1    8.00     0    0    0   240   0.0  1   1    7    0   0.000    0.000    0.000  1
 19   1    1  1 0 2    18  16   100  256  256     0.00000   7.36581 2.24822e-004   748  1301  -3.53  -2.10  -0.38  -12.87   17.91   79.42  1.200  0.000 0 2 0 2  1.000  1.000   3.14    0.00     0.00    0.00   1    8.00     0    0    0   240   0.0  1   1    7    0   0.000    0.000    0.000  1
 20   1    1  1 0 2    19  16   100  256  256     0.00000   7.36581 2.24822e-004   851  1479  -3.53  -2.10  -0.38  -12.82   17.84   78.23  1.200  0.000 0 2 0 2  1.000  1.000   3.14    0.00     0.00    0.00   1    8.00     0    0    0   240   0.0  1   1    7    0   0.000    0.000    0.000  1
 21   1    1  1 0 2    20  16   100  256  256     0.00000   7.36581 2.24822e-004   898  1560  -3.53  -2.10  -0.38  -12.78   17.77   77.03  1.200  0.000 0 2 0 2  1.000  1.000   3.14    0.00     0.00    0.00   1    8.00     0    0    0   240   0.0  1   1    7    0   0.000    0.000    0.000  1
 22   1    1  1 0 2    21  16   100  256  256     0.00000   7.36581 2.24822e-004   944  1641  -3.53  -2.10  -0.38  -12.74   17.69   75.83  1.200  0.000 0 2 0 2  1.000  1.000   3.14    0.00     0.00    0.00   1    8.00     0    0    0   240   0.0  1   1    7    0   0.000    0.000    0.000  1
 23   1    1  1 0 2    22  16   100  256  256     0.00000   7.36581 2.24822e-004   989  1718  -3.53  -2.10  -0.38  -12.69   17.62   74.63  1.200  0.000 0 2 0 2  1.000  1.000   3.14    0.00     0.00    0.00   1    8.00     0    0    0   240   0.0  1   1    7    0   0.000    0.000    0.000  1
 24   1    1  1 0 2    23  16   100  256  256     0.00000   7.36581 2.24822e-004  1021  1776  -3.53  -2.10  -0.38  -12.65   17.54   73.44  1.200  0.000 0 2 0 2  1.000  1.000   3.14    0.00     0.00    0.00   1    8.00     0    0    0   240   0.0  1   1    7    0   0.000    0.000    0.000  1
 25   1    1  1 0 2    24  16   100  256  256     0.00000   7.36581 2.24822e-004  1072  1863  -3.53  -2.10  -0.38  -12.61   17.47   72.24  1.200  0.000 0 2 0 2  1.000  1.000   3.14    0.00     0.00    0.00   1    8.00     0    0    0   240   0.0  1   1    7    0   0.000    0.000    0.000  1
 26   1    1  1 0 2    25  16   100  256  256     0.00000   7.36581 2.24822e-004  1064  1849  -3.53  -2.10  -0.38  -12.56   17.40   71.04  1.200  0.000 0 2 0 2  1.000  1.000   3.14    0.00     0.00    0.00   1    8.00     0    0    0   240   0.0  1   1    7    0   0.000    0.000    0.000  1
 27   1    1  1 0 2    26  16   100  256  256     0.00000   7.36581 2.24822e-004  1098  1910  -3.53  -2.10  -0.38  -12.52   17.32   69.85  1.200  0.000 0 2 0 2  1.000  1.000   3.14    0.00     0.00    0.00   1    8.00     0    0    0   240   0.0  1   1    7    0   0.000    0.000    0.000  1
 28   1    1  1 0 2    27  16   100  256  256     0.00000   7.36581 2.24822e-004  1148  1996  -3.53  -2.10  -0.38  -12.48   17.25   68.65  1.200  0.000 0 2 0 2  1.000  1.000   3.14    0.00     0.00    0.00   1    8.00     0    0    0   240   0.0  1   1    7    0   0.000    0.000    0.000  1
 29   1    1  1 0 2    28  16   100  256  256     0.00000   7.36581 2.24822e-004  1207  2098  -3.53  -2.10  -0.38  -12.43   17.17   67.45  1.200  0.000 0 2 0 2  1.000  1.000   3.14    0.00     0.00    0.00   1    8.00     0    0    0   240   0.0  1   1    7    0   0.000    0.000    0.000  1
 30   1    1  1 0 2    29  16   100  256  256     0.00000   7.36581 2.24822e-004  1238  2153  -3.53  -2.10  -0.38  -12.39   17.10   66.26  1.200  0.000 0 2 0 2  1.000  1.000   3.14    0.00     0.00    0.00   1    8.00     0    0    0   240   0.0  1   1    7    0   0.000    0.000    0.000  1
 31   1    1  1 0 2    30  16   100  256  256     0.00000   7.36581 2.24822e-004  1267  2202  -3.53  -2.10  -0.38  -12.35   17.02   65.06  1.200  0.000 0 2 0 2  1.000  1.000   3.14    0.00     0.00    0.00   1    8.00     0    0    0   240   0.0  1   1    7    0   0.000    0.000    0.000  1
 32   1    1  1 0 2    31  16   100  256  256     0.00000   7.36581 2.24822e-004  1263  2195  -3.53  -2.10  -0.38  -12.30   16.95   63.86  1.200  0.000 0 2 0 2  1.000  1.000   3.14    0.00     0.00    0.00   1    8.00     0    0    0   240   0.0  1   1    7    0   0.000    0.000    0.000  1
 33   1    1  1 0 2    32  16   100  256  256     0.00000   7.36581 2.24822e-004  1307  2272  -3.53  -2.10  -0.38  -12.26   16.88   62.67  1.200  0.000 0 2 0 2  1.000  1.000   3.14    0.00     0.00    0.00   1    8.00     0    0    0   240   0.0  1   1    7    0   0.000    0.000    0.000  1
 34   1    1  1 0 2    33  16   100  256  256     0.00000   7.36581 2.24822e-004  1309  2276  -3.53  -2.10  -0.38  -12.22   16.80   61.47  1.200  0.000 0 2 0 2  1.000  1.000   3.14    0.00     0.00    0.00   1    8.00     0    0    0   240   0.0  1   1    7    0   0.000    0.000    0.000  1
 35   1    1  1 0 2    34  16   100  256  256     0.00000   7.36581 2.24822e-004  1313  2283  -3.53  -2.10  -0.38  -12.17   16.73   60.27  1.200  0.000 0 2 0 2  1.000  1.000   3.14    0.00     0.00    0.00   1    8.00     0    0    0   240   0.0  1   1    7    0   0.000    0.000    0.000  1
 36   1    1  1 0 2    35  16   100  256  256     0.00000   7.36581 2.24822e-004  1331  2314  -3.53  -2.10  -0.38  -12.13   16.65   59.07  1.200  0.000 0 2 0 2  1.000  1.000   3.14    0.00     0.00    0.00   1    8.00     0    0    0   240   0.0  1   1    7    0   0.000    0.000    0.000  1
 37   1    1  1 0 2    36  16   100  256  256     0.00000   7.36581 2.24822e-004  1335  2320  -3.53  -2.10  -0.38  -12.09   16.58   57.88  1.200  0.000 0 2 0 2  1.000  1.000   3.14    0.00     0.00    0.00   1    8.00     0    0    0   240   0.0  1   1    7    0   0.000    0.000    0.000  1
 38   1    1  1 0 2    37  16   100  256  256     0.00000   7.36581 2.24822e-004  1328  2308  -3.53  -2.10  -0.38  -12.04   16.51   56.68  1.200  0.000 0 2 0 2  1.000  1.000   3.14    0.00     0.00    0.00   1    8.00     0    0    0   240   0.0  1   1    7    0   0.000    0.000    0.000  1
 39   1    1  1 0 2    38  16   100  256  256     0.00000   7.36581 2.24822e-004  1288  2239  -3.53  -2.10  -0.38  -12.00   16.43   55.48  1.200  0.000 0 2 0 2  1.000  1.000   3.14    0.00     0.00    0.00   1    8.00     0    0    0   240   0.0  1   1    7    0   0.000    0.000    0.000  1
 40   1    1  1 0 2    39  16   100  256  256     0.00000   7.36581 2.24822e-004  1305  2268  -3.53  -2.10  -0.38  -11.95   16.36   54.29  1.200  0.000 0 2 0 2  1.000  1.000   3.14    0.00     0.00    0.00   1    8.00     0    0    0   240   0.0  1   1    7    0   0.000    0.000    0.000  1
 41   1    1  1 0 2    40  16   100  256  256     0.00000   7.36581 2.24822e-004  1308  2274  -3.53  -2.10  -0.38  -11.91   16.28   53.09  1.200  0.000 0 2 0 2  1.000  1.000   3.14    0.00     0.00    0.00   1    8.00     0    0    0   240   0.0  1   1    7    0   0.000    0.000    0.000  1
 42   1    1  1 0 2    41  16   100  256  256     0.00000   7.36581 2.24822e-004  1288  2239  -3.53  -2.10  -0.38  -11.87   16.21   51.89  1.200  0.000 0 2 0 2  1.000  1.000   3.14    0.00     0.00    0.00   1    8.00     0    0    0   240   0.0  1   1    7    0   0.000    0.000    0.000  1
 43   1    1  1 0 2    42  16   100  256  256     0.00000   7.36581 2.24822e-004  1214  2111  -3.53  -2.10  -0.38  -11.82   16.13   50.70  1.200  0.000 0 2 0 2  1.000  1.000   3.14    0.00     0.00    0.00   1    8.00     0    0    0   240   0.0  1   1    7    0   0.000    0.000    0.000  1
 44   1    1  1 0 2    43  16   100  256  256     0.00000   7.36581 2.24822e-004  1195  2078  -3.53  -2.10  -0.38  -11.78   16.06   49.50  1.200  0.000 0 2 0 2  1.000  1.000   3.14    0.00     0.00    0.00   1    8.00     0    0    0   240   0.0  1   1    7    0   0.000    0.000    0.000  1
 45   1    1  1 0 2    44  16   100  256  256     0.00000   7.36581 2.24822e-004  1174  2040  -3.53  -2.10  -0.38  -11.74   15.99   48.30  1.200  0.000 0 2 0 2  1.000  1.000   3.14    0.00     0.00    0.00   1    8.00     0    0    0   240   0.0  1   1    7    0   0.000    0.000    0.000  1
 46   1    1  1 0 2    45  16   100  256  256     0.00000   7.36581 2.24822e-004  1181  2053  -3.53  -2.10  -0.38  -11.69   15.91   47.11  1.200  0.000 0 2 0 2  1.000  1.000   3.14    0.00     0.00    0.00   1    8.00     0    0    0   240   0.0  1   1    7    0   0.000    0.000    0.000  1
 47   1    1  1 0 2    46  16   100  256  256     0.00000   7.36581 2.24822e-004  1230  2138  -3.53  -2.10  -0.38  -11.65   15.84   45.91  1.200  0.000 0 2 0 2  1.000  1.000   3.14    0.00     0.00    0.00   1    8.00     0    0    0   240   0.0  1   1    7    0   0.000    0.000    0.000  1
 48   1    1  1 0 2    47  16   100  256  256     0.00000   7.36581 2.24822e-004  1227  2132  -3.53  -2.10  -0.38  -11.61   15.76   44.71  1.200  0.000 0 2 0 2  1.000  1.000   3.14    0.00     0.00    0.00   1    8.00     0    0    0   240   0.0  1   1    7    0   0.000    0.000    0.000  1
 49   1    1  1 0 2    48  16   100  256  256     0.00000   7.36581 2.24822e-004  1222  2124  -3.53  -2.10  -0.38  -11.56   15.69   43.51  1.200  0.000 0 2 0 2  1.000  1.000   3.14    0.00     0.00    0.00   1    8.00     0    0    0   240   0.0  1   1    7    0   0.000    0.000    0.000  1
 50   1    1  1 0 2    49  16   100  256  256     0.00000   7.36581 2.24822e-004  1223  2126  -3.53  -2.10  -0.38  -11.52   15.62   42.32  1.200  0.000 0 2 0 2  1.000  1.000   3.14    0.00     0.00    0.00   1    8.00     0    0    0   240   0.0  1   1    7    0   0.000    0.000    0.000  1
 51   1    1  1 0 2    50  16   100  256  256     0.00000   7.36581 2.24822e-004  1197  2081  -3.53  -2.10  -0.38  -11.48   15.54   41.12  1.200  0.000 0 2 0 2  1.000  1.000   3.14    0.00     0.00    0.00   1    8.00     0    0    0   240   0.0  1   1    7    0   0.000    0.000    0.000  1
 52   1    1  1 0 2    51  16   100  256  256     0.00000   7.36581 2.24822e-004  1207  2098  -3.53  -2.10  -0.38  -11.43   15.47   39.92  1.200  0.000 0 2 0 2  1.000  1.000   3.14    0.00     0.00    0.00   1    8.00     0    0    0   240   0.0  1   1    7    0   0.000    0.000    0.000  1
 53   1    1  1 0 2    52  16   100  256  256     0.00000   7.36581 2.24822e-004  1239  2154  -3.53  -2.10  -0.38  -11.39   15.39   38.73  1.200  0.000 0 2 0 2  1.000  1.000   3.14    0.00     0.00    0.00   1    8.00     0    0    0   240   0.0  1   1    7    0   0.000    0.000    0.000  1
 54   1    1  1 0 2    53  16   100  256  256     0.00000   7.36581 2.24822e-004  1320  2295  -3.53  -2.10  -0.38  -11.35   15.32   37.53  1.200  0.000 0 2 0 2  1.000  1.000   3.14    0.00     0.00    0.00   1    8.00     0    0    0   240   0.0  1   1    7    0   0.000    0.000    0.000  1
 55   1    1  1 0 2    54  16   100  256  256     0.00000   7.36581 2.24822e-004  1442  2506  -3.53  -2.10  -0.38  -11.30   15.25   36.33  1.200  0.000 0 2 0 2  1.000  1.000   3.14    0.00     0.00    0.00   1    8.00     0    0    0   240   0.0  1   1    7    0   0.000    0.000    0.000  1
 56   1    1  1 0 2    55  16   100  256  256     0.00000   7.36581 2.24822e-004  1428  2483  -3.53  -2.10  -0.38  -11.26   15.17   35.14  1.200  0.000 0 2 0 2  1.000  1.000   3.14    0.00     0.00    0.00   1    8.00     0    0    0   240   0.0  1   1    7    0   0.000    0.000    0.000  1
 57   1    1  1 0 2    56  16   100  256  256     0.00000   7.36581 2.24822e-004  1446  2513  -3.53  -2.10  -0.38  -11.22   15.10   33.94  1.200  0.000 0 2 0 2  1.000  1.000   3.14    0.00     0.00    0.00   1    8.00     0    0    0   240   0.0  1   1    7    0   0.000    0.000    0.000  1
 58   1    1  1 0 2    57  16   100  256  256     0.00000   7.36581 2.24822e-004  1545  2686  -3.53  -2.10  -0.38  -11.17   15.02   32.74  1.200  0.000 0 2 0 2  1.000  1.000   3.14    0.00     0.00    0.00   1    8.00     0    0    0   240   0.0  1   1    7    0   0.000    0.000    0.000  1
 59   1    1  1 0 2    58  16   100  256  256     0.00000   7.36581 2.24822e-004  1742  3028  -3.53  -2.10  -0.38  -11.13   14.95   31.55  1.200  0.000 0 2 0 2  1.000  1.000   3.14    0.00     0.00    0.00   1    8.00     0    0    0   240   0.0  1   1    7    0   0.000    0.000    0.000  1
 60   1    1  1 0 2    59  16   100  256  256     0.00000   7.36581 2.24822e-004  1668  2899  -3.53  -2.10  -0.38  -11.09   14.87   30.35  1.200  0.000 0 2 0 2  1.000  1.000   3.14    0.00     0.00    0.00   1    8.00     0    0    0   240   0.0  1   1    7    0   0.000    0.000    0.000  1
 61   1    1  1 0 2    60  16   100  256  256     0.00000   7.36581 2.24822e-004  1634  2840  -3.53  -2.10  -0.38  -11.04   14.80   29.15  1.200  0.000 0 2 0 2  1.000  1.000   3.14    0.00     0.00    0.00   1    8.00     0    0    0   240   0.0  1   1    7    0   0.000    0.000    0.000  1
 62   1    1  1 0 2    61  16   100  256  256     0.00000   7.36581 2.24822e-004  1603  2787  -3.53  -2.10  -0.38  -11.00   14.73   27.95  1.200  0.000 0 2 0 2  1.000  1.000   3.14    0.00     0.00    0.00   1    8.00     0    0    0   240   0.0  1   1    7    0   0.000    0.000    0.000  1
 63   1    1  1 0 2    62  16   100  256  256     0.00000   7.36581 2.24822e-004  1324  2301  -3.53  -2.10  -0.38  -10.96   14.65   26.76  1.200  0.000 0 2 0 2  1.000  1.000   3.14    0.00     0.00    0.00   1    8.00     0    0    0   240   0.0  1   1    7    0   0.000    0.000    0.000  1
 64   1    1  1 0 2    63  16   100  256  256     0.00000   7.36581 2.24822e-004  1332  2316  -3.53  -2.10  -0.38  -10.91   14.58   25.56  1.200  0.000 0 2 0 2  1.000  1.000   3.14    0.00     0.00    0.00   1    8.00     0    0    0   240   0.0  1   1    7    0   0.000    0.000    0.000  1
 65   1    1  1 0 2    64  16   100  256  256     0.00000   7.36581 2.24822e-004  1420  2468  -3.53  -2.10  -0.38  -10.87   14.50   24.36  1.200  0.000 0 2 0 2  1.000  1.000   3.14    0.00     0.00    0.00   1    8.00     0    0    0   240   0.0  1   1    7    0   0.000    0.000    0.000  1
 66   1    1  1 0 2    65  16   100  256  256     0.00000   7.36581 2.24822e-004  1403  2439  -3.53  -2.10  -0.38  -10.82   14.43   23.17  1.200  0.000 0 2 0 2  1.000  1.000   3.14    0.00     0.00    0.00   1    8.00     0    0    0   240   0.0  1   1    7    0   0.000    0.000    0.000  1
 67   1    1  1 0 2    66  16   100  256  256     0.00000   7.36581 2.24822e-004  1345  2337  -3.53  -2.10  -0.38  -10.78   14.36   21.97  1.200  0.000 0 2 0 2  1.000  1.000   3.14    0.00     0.00    0.00   1    8.00     0    0    0   240   0.0  1   1    7    0   0.000    0.000    0.000  1
 68   1    1  1 0 2    67  16   100  256  256     0.00000   7.36581 2.24822e-004  1323  2300  -3.53  -2.10  -0.38  -10.74   14.28   20.77  1.200  0.000 0 2 0 2  1.000  1.000   3.14    0.00     0.00    0.00   1    8.00     0    0    0   240   0.0  1   1    7    0   0.000    0.000    0.000  1
 69   1    1  1 0 2    68  16   100  256  256     0.00000   7.36581 2.24822e-004  1357  2359  -3.53  -2.10  -0.38  -10.69   14.21   19.58  1.200  0.000 0 2 0 2  1.000  1.000   3.14    0.00     0.00    0.00   1    8.00     0    0    0   240   0.0  1   1    7    0   0.000    0.000    0.000  1
 70   1    1  1 0 2    69  16   100  256  256     0.00000   7.36581 2.24822e-004  1323  2299  -3.53  -2.10  -0.38  -10.65   14.13   18.38  1.200  0.000 0 2 0 2  1.000  1.000   3.14    0.00     0.00    0.00   1    8.00     0    0    0   240   0.0  1   1    7    0   0.000    0.000    0.000  1
 71   1    1  1 0 2    70  16   100  256  256     0.00000   7.36581 2.24822e-004  1144  1989  -3.53  -2.10  -0.38  -10.61   14.06   17.18  1.200  0.000 0 2 0 2  1.000  1.000   3.14    0.00     0.00    0.00   1    8.00     0    0    0   240   0.0  1   1    7    0   0.000    0.000    0.000  1
 72   1    1  1 0 2    71  16   100  256  256     0.00000   7.36581 2.24822e-004  1123  1953  -3.53  -2.10  -0.38  -10.56   13.98   15.99  1.200  0.000 0 2 0 2  1.000  1.000   3.14    0.00     0.00    0.00   1    8.00     0    0    0   240   0.0  1   1    7    0   0.000    0.000    0.000  1
 73   1    1  1 0 2    72  16   100  256  256     0.00000   7.36581 2.24822e-004  1100  1912  -3.53  -2.10  -0.38  -10.52   13.91   14.79  1.200  0.000 0 2 0 2  1.000  1.000   3.14    0.00     0.00    0.00   1    8.00     0    0    0   240   0.0  1   1    7    0   0.000    0.000    0.000  1
 74   1    1  1 0 2    73  16   100  256  256     0.00000   7.36581 2.24822e-004  1157  2012  -3.53  -2.10  -0.38  -10.48   13.84   13.59  1.200  0.000 0 2 0 2  1.000  1.000   3.14    0.00     0.00    0.00   1    8.00     0    0    0   240   0.0  1   1    7    0   0.000    0.000    0.000  1
 75   1    1  1 0 2    74  16   100  256  256     0.00000   7.36581 2.24822e-004  1088  1891  -3.53  -2.10  -0.38  -10.43   13.76   12.39  1.200  0.000 0 2 0 2  1.000  1.000   3.14    0.00     0.00    0.00   1    8.00     0    0    0   240   0.0  1   1    7    0   0.000    0.000    0.000  1
 76   1    1  1 0 2    75  16   100  256  256     0.00000   7.36581 2.24822e-004  1082  1881  -3.53  -2.10  -0.38  -10.39   13.69   11.20  1.200  0.000 0 2 0 2  1.000  1.000   3.14    0.00     0.00    0.00   1    8.00     0    0    0   240   0.0  1   1    7    0   0.000    0.000    0.000  1
 77   1    1  1 0 2    76  16   100  256  256     0.00000   7.36581 2.24822e-004  1083  1883  -3.53  -2.10  -0.38  -10.35   13.61   10.00  1.200  0.000 0 2 0 2  1.000  1.000   3.14    0.00     0.00    0.00   1    8.00     0    0    0   240   0.0  1   1    7    0   0.000    0.000    0.000  1
 78   1    1  1 0 2    77  16   100  256  256     0.00000   7.36581 2.24822e-004  1077  1872  -3.53  -2.10  -0.38  -10.30   13.54    8.80  1.200  0.000 0 2 0 2  1.000  1.000   3.14    0.00     0.00    0.00   1    8.00     0    0    0   240   0.0  1   1    7    0   0.000    0.000    0.000  1
 79   1    1  1 0 2    78  16   100  256  256     0.00000   7.36581 2.24822e-004  1081  1879  -3.53  -2.10  -0.38  -10.26   13.47    7.61  1.200  0.000 0 2 0 2  1.000  1.000   3.14    0.00     0.00    0.00   1    8.00     0    0    0   240   0.0  1   1    7    0   0.000    0.000    0.000  1
 80   1    1  1 0 2    79  16   100  256  256     0.00000   7.36581 2.24822e-004  1094  1902  -3.53  -2.10  -0.38  -10.22   13.39    6.41  1.200  0.000 0 2 0 2  1.000  1.000   3.14    0.00     0.00    0.00   1    8.00     0    0    0   240   0.0  1   1    7    0   0.000    0.000    0.000  1
 81   1    1  1 0 2    80  16   100  256  256     0.00000   7.36581 2.24822e-004  1091  1897  -3.53  -2.10  -0.38  -10.17   13.32    5.21  1.200  0.000 0 2 0 2  1.000  1.000   3.14    0.00     0.00    0.00   1    8.00     0    0    0   240   0.0  1   1    7    0   0.000    0.000    0.000  1
 82   1    1  1 0 2    81  16   100  256  256     0.00000   7.36581 2.24822e-004  1080  1877  -3.53  -2.10  -0.38  -10.13   13.24    4.02  1.200  0.000 0 2 0 2  1.000  1.000   3.14    0.00     0.00    0.00   1    8.00     0    0    0   240   0.0  1   1    7    0   0.000    0.000    0.000  1
 83   1    1  1 0 2    82  16   100  256  256     0.00000   7.36581 2.24822e-004  1076  1871  -3.53  -2.10  -0.38  -10.09   13.17    2.82  1.200  0.000 0 2 0 2  1.000  1.000   3.14    0.00     0.00    0.00   1    8.00     0    0    0   240   0.0  1   1    7    0   0.000    0.000    0.000  1
 84   1    1  1 0 2    83  16   100  256  256     0.00000   7.36581 2.24822e-004  1067  1854  -3.53  -2.10  -0.38  -10.04   13.09    1.62  1.200  0.000 0 2 0 2  1.000  1.000   3.14    0.00     0.00    0.00   1    8.00     0    0    0   240   0.0  1   1    7    0   0.000    0.000    0.000  1
