# === DATA DESCRIPTION FILE ======================================================
#
# CAUTION - Investigational device.
# Limited by Federal Law to investigational use.
#
#
# CLINICAL TRYOUT             Research image export tool     V4.2
#
# === GENERAL INFORMATION ========================================================
#
.    Protocol name                      :   WIP 3D FLAIR Sag UMich SENSE
.    Series Type                        :   Image   MRSERIES
.    Acquisition nr                     :   4
.    Reconstruction nr                  :   1
.    Scan Duration [sec]                :   528
.    Max. number of cardiac phases      :   1
.    Max. number of echoes              :   1
.    Max. number of slices/locations    :   327
.    Max. number of dynamics            :   1
.    Max. number of mixes               :   1
.    Patient position                   :   Head First Supine
.    Preparation direction              :   Anterior-Posterior
.    Technique                          :   TIR
.    Scan resolution  (x, y)            :   216  220
.    Scan mode                          :   3D
.    Repetition time [ms]               :   8000.000  
.    FOV (ap,fh,rl) [mm]                :   240.000  200.000  179.850
.    Water Fat shift [pixels]           :   0.858
.    Angulation midslice(ap,fh,rl)[degr]:   -4.407  1.337  -0.205
.    Off Centre midslice(ap,fh,rl) [mm] :   -10.888  12.577  -0.090
.    Flow compensation <0=no 1=yes> ?   :   1
.    Presaturation     <0=no 1=yes> ?   :   0
.    Phase encoding velocity [cm/sec]   :   0.000000  0.000000  0.000000
.    MTC               <0=no 1=yes> ?   :   0
.    SPIR              <0=no 1=yes> ?   :   1
.    EPI factor        <0,1=no EPI>     :   1
.    Dynamic scan      <0=no 1=yes> ?   :   0
.    Diffusion         <0=no 1=yes> ?   :   0
.    Diffusion echo time [ms]           :   0.0000
.    Max. number of diffusion values    :   1
.    Max. number of gradient orients    :   1
.    Number of label types   <0=no ASL> :   0
#
# === PIXEL VALUES =============================================================
#  PV = pixel value in REC file, FP = floating point value, DV = displayed value on console
#  RS = rescale slope,           RI = rescale intercept,    SS = scale slope
#  DV = PV * RS + RI             FP = DV / (RS * SS)
#
# === IMAGE INFORMATION DEFINITION =============================================
#  The rest of this file contains ONE line per image, this line contains the following information:
#
#  slice number                             (integer)
#  echo number                              (integer)
#  dynamic scan number                      (integer)
#  cardiac phase number                     (integer)
#  image_type_mr                            (integer)
#  scanning sequence                        (integer)
#  index in REC file (in images)            (integer)
#  image pixel size (in bits)               (integer)
#  scan percentage                          (integer)
#  recon resolution (x y)                   (2*integer)
#  rescale intercept                        (float)
#  rescale slope                            (float)
#  scale slope                              (float)
#  window center                            (integer)
#  window width                             (integer)
#  image angulation (ap,fh,rl in degrees )  (3*float)
#  image offcentre (ap,fh,rl in mm )        (3*float)
#  slice thickness (in mm )                 (float)
#  slice gap (in mm )                       (float)
#  image_display_orientation                (integer)
#  slice orientation ( TRA/SAG/COR )        (integer)
#  fmri_status_indication                   (integer)
#  image_type_ed_es  (end diast/end syst)   (integer)
#  pixel spacing (x,y) (in mm)              (2*float)
#  echo_time                                (float)
#  dyn_scan_begin_time                      (float)
#  trigger_time                             (float)
#  diffusion_b_factor                       (float)
#  number of averages                       (integer)
#  image_flip_angle (in degrees)            (float)
#  cardiac frequency   (bpm)                (integer)
#  minimum RR-interval (in ms)              (integer)
#  maximum RR-interval (in ms)              (integer)
#  TURBO factor  <0=no turbo>               (integer)
#  Inversion delay (in ms)                  (float)
#  diffusion b value number    (imagekey!)  (integer)
#  gradient orientation number (imagekey!)  (integer)
#  contrast type                            (string)
#  diffusion anisotropy type                (string)
#  diffusion (ap, fh, rl)                   (3*float)
#  label type (ASL)            (imagekey!)  (integer)
#
# === IMAGE INFORMATION ==========================================================
#  sl ec  dyn ph ty    idx pix scan% rec size                (re)scale              window        angulation              offcentre        thick   gap   info      spacing     echo     dtime   ttime    diff  avg  flip    freq   RR-int  turbo delay b grad cont anis         diffusion       L.ty

  1   1    1  1 0 0     0  16    79  576  576     0.00000   6.73284 1.31480e-003     6    11  -4.41   1.34  -0.21   -8.77   19.46   89.27  1.100 -0.550 0 2 0 2  0.417  0.417 330.52    0.00     0.00    0.00   1   90.00     0    0    0   110 2400.0  1   1    8    0   0.000    0.000    0.000  1
  2   1    1  1 0 0     1  16    79  576  576     0.00000   6.73284 1.31480e-003     9    16  -4.41   1.34  -0.21   -8.78   19.41   88.72  1.100 -0.550 0 2 0 2  0.417  0.417 330.52    0.00     0.00    0.00   1   90.00     0    0    0   110 2400.0  1   1    8    0   0.000    0.000    0.000  1
  3   1    1  1 0 0     2  16    79  576  576     0.00000   6.73284 1.31480e-003    13    23  -4.41   1.34  -0.21   -8.80   19.37   88.17  1.100 -0.550 0 2 0 2  0.417  0.417 330.52    0.00     0.00    0.00   1   90.00     0    0    0   110 2400.0  1   1    8    0   0.000    0.000    0.000  1
  4   1    1  1 0 0     3  16    79  576  576     0.00000   6.73284 1.31480e-003    13    22  -4.41   1.34  -0.21   -8.81   19.33   87.63  1.100 -0.550 0 2 0 2  0.417  0.417 330.52    0.00     0.00    0.00   1   90.00     0    0    0   110 2400.0  1   1    8    0   0.000    0.000    0.000  1
  5   1    1  1 0 0     4  16    79  576  576     0.00000   6.73284 1.31480e-003    13    23  -4.41   1.34  -0.21   -8.82   19.29   87.08  1.100 -0.550 0 2 0 2  0.417  0.417 330.52    0.00     0.00    0.00   1   90.00     0    0    0   110 2400.0  1   1    8    0   0.000    0.000    0.000  1
  6   1    1  1 0 0     5  16    79  576  576     0.00000   6.73284 1.31480e-003    14    24  -4.41   1.34  -0.21   -8.84   19.24   86.53  1.100 -0.550 0 2 0 2  0.417  0.417 330.52    0.00     0.00    0.00   1   90.00     0    0    0   110 2400.0  1   1    8    0   0.000    0.000    0.000  1
  7   1    1  1 0 0     6  16    79  576  576     0.00000   6.73284 1.31480e-003    15    26  -4.41   1.34  -0.21   -8.85   19.20   85.98  1.100 -0.550 0 2 0 2  0.417  0.417 330.52    0.00     0.00    0.00   1   90.00     0    0    0   110 2400.0  1   1    8    0   0.000    0.000    0.000  1
  8   1    1  1 0 0     7  16    79  576  576     0.00000   6.73284 1.31480e-003    18    31  -4.41   1.34  -0.21   -8.86   19.16   85.43  1.100 -0.550 0 2 0 2  0.417  0.417 330.52    0.00     0.00    0.00   1   90.00     0    0    0   110 2400.0  1   1    8    0   0.000    0.000    0.000  1
  9   1    1  1 0 0     8  16    79  576  576     0.00000   6.73284 1.31480e-003    21    36  -4.41   1.34  -0.21   -8.87   19.12   84.89  1.100 -0.550 0 2 0 2  0.417  0.417 330.52    0.00     0.00    0.00   1   90.00     0    0    0   110 2400.0  1   1    8    0   0.000    0.000    0.000  1
 10   1    1  1 0 0     9  16    79  576  576     0.00000   6.73284 1.31480e-003    23    39  -4.41   1.34  -0.21   -8.89   19.08   84.34  1.100 -0.550 0 2 0 2  0.417  0.417 330.52    0.00     0.00    0.00   1   90.00     0    0    0   110 2400.0  1   1    8    0   0.000    0.000    0.000  1
 11   1    1  1 0 0    10  16    79  576  576     0.00000   6.73284 1.31480e-003    27    47  -4.41   1.34  -0.21   -8.90   19.03   83.79  1.100 -0.550 0 2 0 2  0.417  0.417 330.52    0.00     0.00    0.00   1   90.00     0    0    0   110 2400.0  1   1    8    0   0.000    0.000    0.000  1
 12   1    1  1 0 0    11  16    79  576  576     0.00000   6.73284 1.31480e-003    30    52  -4.41   1.34  -0.21   -8.91   18.99   83.24  1.100 -0.550 0 2 0 2  0.417  0.417 330.52    0.00     0.00    0.00   1   90.00     0    0    0   110 2400.0  1   1    8    0   0.000    0.000    0.000  1
 13   1    1  1 0 0    12  16    79  576  576     0.00000   6.73284 1.31480e-003    34    59  -4.41   1.34  -0.21   -8.93   18.95   82.69  1.100 -0.550 0 2 0 2  0.417  0.417 330.52    0.00     0.00    0.00   1   90.00     0    0    0   110 2400.0  1   1    8    0   0.000    0.000    0.000  1
 14   1    1  1 0 0    13  16    79  576  576     0.00000   6.73284 1.31480e-003    35    62  -4.41   1.34  -0.21   -8.94   18.91   82.14  1.100 -0.550 0 2 0 2  0.417  0.417 330.52    0.00     0.00    0.00   1   90.00     0    0    0   110 2400.0  1   1    8    0   0.000    0.000    0.000  1
 15   1    1  1 0 0    14  16    79  576  576     0.00000   6.73284 1.31480e-003    39    67  -4.41   1.34  -0.21   -8.95   18.86   81.60  1.100 -0.550 0 2 0 2  0.417  0.417 330.52    0.00     0.00    0.00   1   90.00     0    0    0   110 2400.0  1   1    8    0   0.000    0.000    0.000  1
 16   1    1  1 0 0    15  16    79  576  576     0.00000   6.73284 1.31480e-003    42    74  -4.41   1.34  -0.21   -8.97   18.82   81.05  1.100 -0.550 0 2 0 2  0.417  0.417 330.52    0.00     0.00    0.00   1   90.00     0    0    0   110 2400.0  1   1    8    0   0.000    0.000    0.000  1
 17   1    1  1 0 0    16  16    79  576  576     0.00000   6.73284 1.31480e-003    46    81  -4.41   1.34  -0.21   -8.98   18.78   80.50  1.100 -0.550 0 2 0 2  0.417  0.417 330.52    0.00     0.00    0.00   1   90.00     0    0    0   110 2400.0  1   1    8    0   0.000    0.000    0.000  1
 18   1    1  1 0 0    17  16    79  576  576     0.00000   6.73284 1.31480e-003    47    81  -4.41   1.34  -0.21   -8.99   18.74   79.95  1.100 -0.550 0 2 0 2  0.417  0.417 330.52    0.00     0.00    0.00   1   90.00     0    0    0   110 2400.0  1   1    8    0   0.000    0.000    0.000  1
 19   1    1  1 0 0    18  16    79  576  576     0.00000   6.73284 1.31480e-003    49    85  -4.41   1.34  -0.21   -9.00   18.70   79.40  1.100 -0.550 0 2 0 2  0.417  0.417 330.52    0.00     0.00    0.00   1   90.00     0    0    0   110 2400.0  1   1    8    0   0.000    0.000    0.000  1
 20   1    1  1 0 0    19  16    79  576  576     0.00000   6.73284 1.31480e-003    74   128  -4.41   1.34  -0.21   -9.02   18.65   78.85  1.100 -0.550 0 2 0 2  0.417  0.417 330.52    0.00     0.00    0.00   1   90.00     0    0    0   110 2400.0  1   1    8    0   0.000    0.000    0.000  1
 21   1    1  1 0 0    20  16    79  576  576     0.00000   6.73284 1.31480e-003   197   342  -4.41   1.34  -0.21   -9.03   18.61   78.31  1.100 -0.550 0 2 0 2  0.417  0.417 330.52    0.00     0.00    0.00   1   90.00     0    0    0   110 2400.0  1   1    8    0   0.000    0.000    0.000  1
 22   1    1  1 0 0    21  16    79  576  576     0.00000   6.73284 1.31480e-003   309   537  -4.41   1.34  -0.21   -9.04   18.57   77.76  1.100 -0.550 0 2 0 2  0.417  0.417 330.52    0.00     0.00    0.00   1   90.00     0    0    0   110 2400.0  1   1    8    0   0.000    0.000    0.000  1
 23   1    1  1 0 0    22  16    79  576  576     0.00000   6.73284 1.31480e-003   362   630  -4.41   1.34  -0.21   -9.06   18.53   77.21  1.100 -0.550 0 2 0 2  0.417  0.417 330.52    0.00     0.00    0.00   1   90.00     0    0    0   110 2400.0  1   1    8    0   0.000    0.000    0.000  1
 24   1    1  1 0 0    23  16    79  576  576     0.00000   6.73284 1.31480e-003   342   595  -4.41   1.34  -0.21   -9.07   18.48   76.66  1.100 -0.550 0 2 0 2  0.417  0.417 330.52    0.00     0.00    0.00   1   90.00     0    0    0   110 2400.0  1   1    8    0   0.000    0.000    0.000  1
 25   1    1  1 0 0    24  16    79  576  576     0.00000   6.73284 1.31480e-003   306   532  -4.41   1.34  -0.21   -9.08   18.44   76.11  1.100 -0.550 0 2 0 2  0.417  0.417 330.52    0.00     0.00    0.00   1   90.00     0    0    0   110 2400.0  1   1    8    0   0.000    0.000    0.000  1
 26   1    1  1 0 0    25  16    79  576  576     0.00000   6.73284 1.31480e-003   320   556  -4.41   1.34  -0.21   -9.10   18.40   75.57  1.100 -0.550 0 2 0 2  0.417  0.417 330.52    0.00     0.00    0.00   1   90.00     0    0    0   110 2400.0  1   1    8    0   0.000    0.000    0.000  1
 27   1    1  1 0 0    26  16    79  576  576     0.00000   6.73284 1.31480e-003   343   597  -4.41   1.34  -0.21   -9.11   18.36   75.02  1.100 -0.550 0 2 0 2  0.417  0.417 330.52    0.00     0.00    0.00   1   90.00     0    0    0   110 2400.0  1   1    8    0   0.000    0.000    0.000  1
 28   1    1  1 0 0    27  16    79  576  576     0.00000   6.73284 1.31480e-003   322   560  -4.41   1.34  -0.21   -9.12   18.32   74.47  1.100 -0.550 0 2 0 2  0.417  0.417 330.52    0.00     0.00    0.00   1   90.00     0    0    0   110 2400.0  1   1    8    0   0.000    0.000    0.000  1
 29   1    1  1 0 0    28  16    79  576  576     0.00000   6.73284 1.31480e-003   338   588  -4.41   1.34  -0.21   -9.13   18.27   73.92  1.100 -0.550 0 2 0 2  0.417  0.417 330.52    0.00     0.00    0.00   1   90.00     0    0    0   110 2400.0  1   1    8    0   0.000    0.000    0.000  1
 30   1    1  1 0 0    29  16    79  576  576     0.00000   6.73284 1.31480e-003   387   672  -4.41   1.34  -0.21   -9.15   18.23   73.37  1.100 -0.550 0 2 0 2  0.417  0.417 330.52    0.00     0.00    0.00   1   90.00     0    0    0   110 2400.0  1   1    8    0   0.000    0.000    0.000  1
 31   1    1  1 0 0    30  16    79  576  576     0.00000   6.73284 1.31480e-003   398   693  -4.41   1.34  -0.21   -9.16   18.19   72.82  1.100 -0.550 0 2 0 2  0.417  0.417 330.52    0.00     0.00    0.00   1   90.00     0    0    0   110 2400.0  1   1    8    0   0.000    0.000    0.000  1
 32   1    1  1 0 0    31  16    79  576  576     0.00000   6.73284 1.31480e-003   400   696  -4.41   1.34  -0.21   -9.17   18.15   72.28  1.100 -0.550 0 2 0 2  0.417  0.417 330.52    0.00     0.00    0.00   1   90.00     0    0    0   110 2400.0  1   1    8    0   0.000    0.000    0.000  1
 33   1    1  1 0 0    32  16    79  576  576     0.00000   6.73284 1.31480e-003   409   711  -4.41   1.34  -0.21   -9.19   18.11   71.73  1.100 -0.550 0 2 0 2  0.417  0.417 330.52    0.00     0.00    0.00   1   90.00     0    0    0   110 2400.0  1   1    8    0   0.000    0.000    0.000  1
 34   1    1  1 0 0    33  16    79  576  576     0.00000   6.73284 1.31480e-003   421   732  -4.41   1.34  -0.21   -9.20   18.06   71.18  1.100 -0.550 0 2 0 2  0.417  0.417 330.52    0.00     0.00    0.00   1   90.00     0    0    0   110 2400.0  1   1    8    0   0.000    0.000    0.000  1
 35   1    1  1 0 0    34  16    79  576  576     0.00000   6.73284 1.31480e-003   442   768  -4.41   1.34  -0.21   -9.21   18.02   70.63  1.100 -0.550 0 2 0 2  0.417  0.417 330.52    0.00     0.00    0.00   1   90.00     0    0    0   110 2400.0  1   1    8    0   0.000    0.000    0.000  1
 36   1    1  1 0 0    35  16    79  576  576     0.00000   6.73284 1.31480e-003   456   793  -4.41   1.34  -0.21   -9.23   17.98   70.08  1.100 -0.550 0 2 0 2  0.417  0.417 330.52    0.00     0.00    0.00   1   90.00     0    0    0   110 2400.0  1   1    8    0   0.000    0.000    0.000  1
 37   1    1  1 0 0    36  16    79  576  576     0.00000   6.73284 1.31480e-003   446   776  -4.41   1.34  -0.21   -9.24   17.94   69.53  1.100 -0.550 0 2 0 2  0.417  0.417 330.52    0.00     0.00    0.00   1   90.00     0    0    0   110 2400.0  1   1    8    0   0.000    0.000    0.000  1
 38   1    1  1 0 0    37  16    79  576  576     0.00000   6.73284 1.31480e-003   457   794  -4.41   1.34  -0.21   -9.25   17.89   68.99  1.100 -0.550 0 2 0 2  0.417  0.417 330.52    0.00     0.00    0.00   1   90.00     0    0    0   110 2400.0  1   1    8    0   0.000    0.000    0.000  1
 39   1    1  1 0 0    38  16    79  576  576     0.00000   6.73284 1.31480e-003   471   819  -4.41   1.34  -0.21   -9.26   17.85   68.44  1.100 -0.550 0 2 0 2  0.417  0.417 330.52    0.00     0.00    0.00   1   90.00     0    0    0   110 2400.0  1   1    8    0   0.000    0.000    0.000  1
 40   1    1  1 0 0    39  16    79  576  576     0.00000   6.73284 1.31480e-003   484   842  -4.41   1.34  -0.21   -9.28   17.81   67.89  1.100 -0.550 0 2 0 2  0.417  0.417 330.52    0.00     0.00    0.00   1   90.00     0    0    0   110 2400.0  1   1    8    0   0.000    0.000    0.000  1
 41   1    1  1 0 0    40  16    79  576  576     0.00000   6.73284 1.31480e-003   511   888  -4.41   1.34  -0.21   -9.29   17.77   67.34  1.100 -0.550 0 2 0 2  0.417  0.417 330.52    0.00     0.00    0.00   1   90.00     0    0    0   110 2400.0  1   1    8    0   0.000    0.000    0.000  1
 42   1    1  1 0 0    41  16    79  576  576     0.00000   6.73284 1.31480e-003   525   913  -4.41   1.34  -0.21   -9.30   17.73   66.79  1.100 -0.550 0 2 0 2  0.417  0.417 330.52    0.00     0.00    0.00   1   90.00     0    0    0   110 2400.0  1   1    8    0   0.000    0.000    0.000  1
 43   1    1  1 0 0    42  16    79  576  576     0.00000   6.73284 1.31480e-003   521   906  -4.41   1.34  -0.21   -9.32   17.68   66.25  1.100 -0.550 0 2 0 2  0.417  0.417 330.52    0.00     0.00    0.00   1   90.00     0    0    0   110 2400.0  1   1    8    0   0.000    0.000    0.000  1
 44   1    1  1 0 0    43  16    79  576  576     0.00000   6.73284 1.31480e-003   482   838  -4.41   1.34  -0.21   -9.33   17.64   65.70  1.100 -0.550 0 2 0 2  0.417  0.417 330.52    0.00     0.00    0.00   1   90.00     0    0    0   110 2400.0  1   1    8    0   0.000    0.000    0.000  1
 45   1    1  1 0 0    44  16    79  576  576     0.00000   6.73284 1.31480e-003   476   828  -4.41   1.34  -0.21   -9.34   17.60   65.15  1.100 -0.550 0 2 0 2  0.417  0.417 330.52    0.00     0.00    0.00   1   90.00     0    0    0   110 2400.0  1   1    8    0   0.000    0.000    0.000  1
 46   1    1  1 0 0    45  16    79  576  576     0.00000   6.73284 1.31480e-003   470   818  -4.41   1.34  -0.21   -9.36   17.56   64.60  1.100 -0.550 0 2 0 2  0.417  0.417 330.52    0.00     0.00    0.00   1   90.00     0    0    0   110 2400.0  1   1    8    0   0.000    0.000    0.000  1
 47   1    1  1 0 0    46  16    79  576  576     0.00000   6.73284 1.31480e-003   496   862  -4.41   1.34  -0.21   -9.37   17.51   64.05  1.100 -0.550 0 2 0 2  0.417  0.417 330.52    0.00     0.00    0.00   1   90.00     0    0    0   110 2400.0  1   1    8    0   0.000    0.000    0.000  1
 48   1    1  1 0 0    47  16    79  576  576     0.00000   6.73284 1.31480e-003   617  1073  -4.41   1.34  -0.21   -9.38   17.47   63.50  1.100 -0.550 0 2 0 2  0.417  0.417 330.52    0.00     0.00    0.00   1   90.00     0    0    0   110 2400.0  1   1    8    0   0.000    0.000    0.000  1
 49   1    1  1 0 0    48  16    79  576  576     0.00000   6.73284 1.31480e-003   646  1124  -4.41   1.34  -0.21   -9.39   17.43   62.96  1.100 -0.550 0 2 0 2  0.417  0.417 330.52    0.00     0.00    0.00   1   90.00     0    0    0   110 2400.0  1   1    8    0   0.000    0.000    0.000  1
 50   1    1  1 0 0    49  16    79  576  576     0.00000   6.73284 1.31480e-003   653  1136  -4.41   1.34  -0.21   -9.41   17.39   62.41  1.100 -0.550 0 2 0 2  0.417  0.417 330.52    0.00     0.00    0.00   1   90.00     0    0    0   110 2400.0  1   1    8    0   0.000    0.000    0.000  1
 51   1    1  1 0 0    50  16    79  576  576     0.00000   6.73284 1.31480e-003   665  1156  -4.41   1.34  -0.21   -9.42   17.35   61.86  1.100 -0.550 0 2 0 2  0.417  0.417 330.52    0.00     0.00    0.00   1   90.00     0    0    0   110 2400.0  1   1    8    0   0.000    0.000    0.000  1
 52   1    1  1 0 0    51  16    79  576  576     0.00000   6.73284 1.31480e-003   679  1180  -4.41   1.34  -0.21   -9.43   17.30   61.31  1.100 -0.550 0 2 0 2  0.417  0.417 330.52    0.00     0.00    0.00   1   90.00     0    0    0   110 2400.0  1   1    8    0   0.000    0.000    0.000  1
 53   1    1  1 0 0    52  16    79  576  576     0.00000   6.73284 1.31480e-003   684  1188  -4.41   1.34  -0.21   -9.45   17.26   60.76  1.100 -0.550 0 2 0 2  0.417  0.417 330.52    0.00     0.00    0.00   1   90.00     0    0    0   110 2400.0  1   1    8    0   0.000    0.000    0.000  1
 54   1    1  1 0 0    53  16    79  576  576     0.00000   6.73284 1.31480e-003   697  1212  -4.41   1.34  -0.21   -9.46   17.22   60.21  1.100 -0.550 0 2 0 2  0.417  0.417 330.52    0.00     0.00    0.00   1   90.00     0    0    0   110 2400.0  1   1    8    0   0.000    0.000    0.000  1
 55   1    1  1 0 0    54  16    79  576  576     0.00000   6.73284 1.31480e-003   716  1245  -4.41   1.34  -0.21   -9.47   17.18   59.67  1.100 -0.550 0 2 0 2  0.417  0.417 330.52    0.00     0.00    0.00   1   90.00     0    0    0   110 2400.0  1   1    8    0   0.000    0.000    0.000  1
 56   1    1  1 0 0    55  16    79  576  576     0.00000   6.73284 1.31480e-003   790  1374  -4.41   1.34  -0.21   -9.49   17.13   59.12  1.100 -0.550 0 2 0 2  0.417  0.417 330.52    0.00     0.00    0.00   1   90.00     0    0    0   110 2400.0  1   1    8    0   0.000    0.000    0.000  1
 57   1    1  1 0 0    56  16    79  576  576     0.00000   6.73284 1.31480e-003   865  1504  -4.41   1.34  -0.21   -9.50   17.09   58.57  1.100 -0.550 0 2 0 2  0.417  0.417 330.52    0.00     0.00    0.00   1   90.00     0    0    0   110 2400.0  1   1    8    0   0.000    0.000    0.000  1
 58   1    1  1 0 0    57  16    79  576  576     0.00000   6.73284 1.31480e-003   943  1640  -4.41   1.34  -0.21   -9.51   17.05   58.02  1.100 -0.550 0 2 0 2  0.417  0.417 330.52    0.00     0.00    0.00   1   90.00     0    0    0   110 2400.0  1   1    8    0   0.000    0.000    0.000  1
 59   1    1  1 0 0    58  16    79  576  576     0.00000   6.73284 1.31480e-003  1008  1753  -4.41   1.34  -0.21   -9.52   17.01   57.47  1.100 -0.550 0 2 0 2  0.417  0.417 330.52    0.00     0.00    0.00   1   90.00     0    0    0   110 2400.0  1   1    8    0   0.000    0.000    0.000  1
 60   1    1  1 0 0    59  16    79  576  576     0.00000   6.73284 1.31480e-003  1065  1851  -4.41   1.34  -0.21   -9.54   16.97   56.93  1.100 -0.550 0 2 0 2  0.417  0.417 330.52    0.00     0.00    0.00   1   90.00     0    0    0   110 2400.0  1   1    8    0   0.000    0.000    0.000  1
 61   1    1  1 0 0    60  16    79  576  576     0.00000   6.73284 1.31480e-003  1086  1887  -4.41   1.34  -0.21   -9.55   16.92   56.38  1.100 -0.550 0 2 0 2  0.417  0.417 330.52    0.00     0.00    0.00   1   90.00     0    0    0   110 2400.0  1   1    8    0   0.000    0.000    0.000  1
 62   1    1  1 0 0    61  16    79  576  576     0.00000   6.73284 1.31480e-003  1103  1917  -4.41   1.34  -0.21   -9.56   16.88   55.83  1.100 -0.550 0 2 0 2  0.417  0.417 330.52    0.00     0.00    0.00   1   90.00     0    0    0   110 2400.0  1   1    8    0   0.000    0.000    0.000  1
 63   1    1  1 0 0    62  16    79  576  576     0.00000   6.73284 1.31480e-003  1129  1963  -4.41   1.34  -0.21   -9.58   16.84   55.28  1.100 -0.550 0 2 0 2  0.417  0.417 330.52    0.00     0.00    0.00   1   90.00     0    0    0   110 2400.0  1   1    8    0   0.000    0.000    0.000  1
 64   1    1  1 0 0    63  16    79  576  576     0.00000   6.73284 1.31480e-003  1155  2008  -4.41   1.34  -0.21   -9.59   16.80   54.73  1.100 -0.550 0 2 0 2  0.417  0.417 330.52    0.00     0.00    0.00   1   90.00     0    0    0   110 2400.0  1   1    8    0   0.000    0.000    0.000  1
 65   1    1  1 0 0    64  16    79  576  576     0.00000   6.73284 1.31480e-003  1185  2060  -4.41   1.34  -0.21   -9.60   16.75   54.18  1.100 -0.550 0 2 0 2  0.417  0.417 330.52    0.00     0.00    0.00   1   90.00     0    0    0   110 2400.0  1   1    8    0   0.000    0.000    0.000  1
 66   1    1  1 0 0    65  16    79  576  576     0.00000   6.73284 1.31480e-003  1216  2114  -4.41   1.34  -0.21   -9.62   16.71   53.64  1.100 -0.550 0 2 0 2  0.417  0.417 330.52    0.00     0.00    0.00   1   90.00     0    0    0   110 2400.0  1   1    8    0   0.000    0.000    0.000  1
 67   1    1  1 0 0    66  16    79  576  576     0.00000   6.73284 1.31480e-003  1234  2145  -4.41   1.34  -0.21   -9.63   16.67   53.09  1.100 -0.550 0 2 0 2  0.417  0.417 330.52    0.00     0.00    0.00   1   90.00     0    0    0   110 2400.0  1   1    8    0   0.000    0.000    0.000  1
 68   1    1  1 0 0    67  16    79  576  576     0.00000   6.73284 1.31480e-003  1257  2185  -4.41   1.34  -0.21   -9.64   16.63   52.54  1.100 -0.550 0 2 0 2  0.417  0.417 330.52    0.00     0.00    0.00   1   90.00     0    0    0   110 2400.0  1   1    8    0   0.000    0.000    0.000  1
 69   1    1  1 0 0    68  16    79  576  576     0.00000   6.73284 1.31480e-003  1259  2189  -4.41   1.34  -0.21   -9.65   16.59   51.99  1.100 -0.550 0 2 0 2  0.417  0.417 330.52    0.00     0.00    0.00   1   90.00     0    0    0   110 2400.0  1   1    8    0   0.000    0.000    0.000  1
 70   1    1  1 0 0    69  16    79  576  576     0.00000   6.73284 1.31480e-003  1263  2195  -4.41   1.34  -0.21   -9.67   16.54   51.44  1.100 -0.550 0 2 0 2  0.417  0.417 330.52    0.00     0.00    0.00   1   90.00     0    0    0   110 2400.0  1   1    8    0   0.000    0.000    0.000  1
 71   1    1  1 0 0    70  16    79  576  576     0.00000   6.73284 1.31480e-003  1262  2195  -4.41   1.34  -0.21   -9.68   16.50   50.90  1.100 -0.550 0 2 0 2  0.417  0.417 330.52    0.00     0.00    0.00   1   90.00     0    0    0   110 2400.0  1   1    8    0   0.000    0.000    0.000  1
 72   1    1  1 0 0    71  16    79  576  576     0.00000   6.73284 1.31480e-003  1266  2200  -4.41   1.34  -0.21   -9.69   16.46   50.35  1.100 -0.550 0 2 0 2  0.417  0.417 330.52    0.00     0.00    0.00   1   90.00     0    0    0   110 2400.0  1   1    8    0   0.000    0.000    0.000  1
 73   1    1  1 0 0    72  16    79  576  576     0.00000   6.73284 1.31480e-003  1288  2240  -4.41   1.34  -0.21   -9.71   16.42   49.80  1.100 -0.550 0 2 0 2  0.417  0.417 330.52    0.00     0.00    0.00   1   90.00     0    0    0   110 2400.0  1   1    8    0   0.000    0.000    0.000  1
 74   1    1  1 0 0    73  16    79  576  576     0.00000   6.73284 1.31480e-003  1307  2271  -4.41   1.34  -0.21   -9.72   16.37   49.25  1.100 -0.550 0 2 0 2  0.417  0.417 330.52    0.00     0.00    0.00   1   90.00     0    0    0   110 2400.0  1   1    8    0   0.000    0.000    0.000  1
 75   1    1  1 0 0    74  16    79  576  576     0.00000   6.73284 1.31480e-003  1314  2284  -4.41   1.34  -0.21   -9.73   16.33   48.70  1.100 -0.550 0 2 0 2  0.417  0.417 330.52    0.00     0.00    0.00   1   90.00     0    0    0   110 2400.0  1   1    8    0   0.000    0.000    0.000  1
 76   1    1  1 0 0    75  16    79  576  576     0.00000   6.73284 1.31480e-003  1313  2282  -4.41   1.34  -0.21   -9.75   16.29   48.15  1.100 -0.550 0 2 0 2  0.417  0.417 330.52    0.00     0.00    0.00   1   90.00     0    0    0   110 2400.0  1   1    8    0   0.000    0.000    0.000  1
 77   1    1  1 0 0    76  16    79  576  576     0.00000   6.73284 1.31480e-003  1315  2287  -4.41   1.34  -0.21   -9.76   16.25   47.61  1.100 -0.550 0 2 0 2  0.417  0.417 330.52    0.00     0.00    0.00   1   90.00     0    0    0   110 2400.0  1   1    8    0   0.000    0.000    0.000  1
 78   1    1  1 0 0    77  16    79  576  576     0.00000   6.73284 1.31480e-003  1313  2282  -4.41   1.34  -0.21   -9.77   16.21   47.06  1.100 -0.550 0 2 0 2  0.417  0.417 330.52    0.00     0.00    0.00   1   90.00     0    0    0   110 2400.0  1   1    8    0   0.000    0.000    0.000  1
 79   1    1  1 0 0    78  16    79  576  576     0.00000   6.73284 1.31480e-003  1322  2297  -4.41   1.34  -0.21   -9.78   16.16   46.51  1.100 -0.550 0 2 0 2  0.417  0.417 330.52    0.00     0.00    0.00   1   90.00     0    0    0   110 2400.0  1   1    8    0   0.000    0.000    0.000  1
 80   1    1  1 0 0    79  16    79  576  576     0.00000   6.73284 1.31480e-003  1322  2297  -4.41   1.34  -0.21   -9.80   16.12   45.96  1.100 -0.550 0 2 0 2  0.417  0.417 330.52    0.00     0.00    0.00   1   90.00     0    0    0   110 2400.0  1   1    8    0   0.000    0.000    0.000  1
 81   1    1  1 0 0    80  16    79  576  576     0.00000   6.73284 1.31480e-003  1331  2313  -4.41   1.34  -0.21   -9.81   16.08   45.41  1.100 -0.550 0 2 0 2  0.417  0.417 330.52    0.00     0.00    0.00   1   90.00     0    0    0   110 2400.0  1   1    8    0   0.000    0.000    0.000  1
 82   1    1  1 0 0    81  16    79  576  576     0.00000   6.73284 1.31480e-003  1333  2317  -4.41   1.34  -0.21   -9.82   16.04   44.86  1.100 -0.550 0 2 0 2  0.417  0.417 330.52    0.00     0.00    0.00   1   90.00     0    0    0   110 2400.0  1   1    8    0   0.000    0.000    0.000  1
 83   1    1  1 0 0    82  16    79  576  576     0.00000   6.73284 1.31480e-003  1344  2336  -4.41   1.34  -0.21   -9.84   16.00   44.32  1.100 -0.550 0 2 0 2  0.417  0.417 330.52    0.00     0.00    0.00   1   90.00     0    0    0   110 2400.0  1   1    8    0   0.000    0.000    0.000  1
 84   1    1  1 0 0    83  16    79  576  576     0.00000   6.73284 1.31480e-003  1354  2354  -4.41   1.34  -0.21   -9.85   15.95   43.77  1.100 -0.550 0 2 0 2  0.417  0.417 330.52    0.00     0.00    0.00   1   90.00     0    0    0   110 2400.0  1   1    8    0   0.000    0.000    0.000  1
