# === DATA DESCRIPTION FILE ======================================================
#
# CAUTION - Investigational device.
# Limited by Federal Law to investigational use.
#
#
# CLINICAL TRYOUT             Research image export tool     V4.2
#
# === GENERAL INFORMATION ========================================================
#
.    Protocol name                      :   WIP MPrageADNIsag SENSE
.    Series Type                        :   Image   MRSERIES
.    Acquisition nr                     :   3
.    Reconstruction nr                  :   1
.    Scan Duration [sec]                :   356
.    Max. number of cardiac phases      :   1
.    Max. number of echoes              :   1
.    Max. number of slices/locations    :   170
.    Max. number of dynamics            :   1
.    Max. number of mixes               :   1
.    Patient position                   :   Head First Supine
.    Preparation direction              :   Anterior-Posterior
.    Technique                          :   T1TFE
.    Scan resolution  (x, y)            :   256  256
.    Scan mode                          :   3D
.    Repetition time [ms]               :   6.768  
.    FOV (ap,fh,rl) [mm]                :   240.000  256.000  204.000
.    Water Fat shift [pixels]           :   1.802
.    Angulation midslice(ap,fh,rl)[degr]:   -0.252  0.225  -0.017
.    Off Centre midslice(ap,fh,rl) [mm] :   -10.798  11.686  -0.922
.    Flow compensation <0=no 1=yes> ?   :   0
.    Presaturation     <0=no 1=yes> ?   :   0
.    Phase encoding velocity [cm/sec]   :   0.000000  0.000000  0.000000
.    MTC               <0=no 1=yes> ?   :   0
.    SPIR              <0=no 1=yes> ?   :   0
.    EPI factor        <0,1=no EPI>     :   1
.    Dynamic scan      <0=no 1=yes> ?   :   0
.    Diffusion         <0=no 1=yes> ?   :   0
.    Diffusion echo time [ms]           :   0.0000
.    Max. number of diffusion values    :   1
.    Max. number of gradient orients    :   1
.    Number of label types   <0=no ASL> :   0
#
# === PIXEL VALUES =============================================================
#  PV = pixel value in REC file, FP = floating point value, DV = displayed value on console
#  RS = rescale slope,           RI = rescale intercept,    SS = scale slope
#  DV = PV * RS + RI             FP = DV / (RS * SS)
#
# === IMAGE INFORMATION DEFINITION =============================================
#  The rest of this file contains ONE line per image, this line contains the following information:
#
#  slice number                             (integer)
#  echo number                              (integer)
#  dynamic scan number                      (integer)
#  cardiac phase number                     (integer)
#  image_type_mr                            (integer)
#  scanning sequence                        (integer)
#  index in REC file (in images)            (integer)
#  image pixel size (in bits)               (integer)
#  scan percentage                          (integer)
#  recon resolution (x y)                   (2*integer)
#  rescale intercept                        (float)
#  rescale slope                            (float)
#  scale slope                              (float)
#  window center                            (integer)
#  window width                             (integer)
#  image angulation (ap,fh,rl in degrees )  (3*float)
#  image offcentre (ap,fh,rl in mm )        (3*float)
#  slice thickness (in mm )                 (float)
#  slice gap (in mm )                       (float)
#  image_display_orientation                (integer)
#  slice orientation ( TRA/SAG/COR )        (integer)
#  fmri_status_indication                   (integer)
#  image_type_ed_es  (end diast/end syst)   (integer)
#  pixel spacing (x,y) (in mm)              (2*float)
#  echo_time                                (float)
#  dyn_scan_begin_time                      (float)
#  trigger_time                             (float)
#  diffusion_b_factor                       (float)
#  number of averages                       (integer)
#  image_flip_angle (in degrees)            (float)
#  cardiac frequency   (bpm)                (integer)
#  minimum RR-interval (in ms)              (integer)
#  maximum RR-interval (in ms)              (integer)
#  TURBO factor  <0=no turbo>               (integer)
#  Inversion delay (in ms)                  (float)
#  diffusion b value number    (imagekey!)  (integer)
#  gradient orientation number (imagekey!)  (integer)
#  contrast type                            (string)
#  diffusion anisotropy type                (string)
#  diffusion (ap, fh, rl)                   (3*float)
#  label type (ASL)            (imagekey!)  (integer)
#
# === IMAGE INFORMATION ==========================================================
#  sl ec  dyn ph ty    idx pix scan% rec size                (re)scale              window        angulation              offcentre        thick   gap   info      spacing     echo     dtime   ttime    diff  avg  flip    freq   RR-int  turbo delay b grad cont anis         diffusion       L.ty

  1   1    1  1 0 2     0  16   100  256  256     0.00000   6.03101 2.36606e-004   106   185  -0.25   0.22  -0.02  -10.40   12.13  100.48  1.200  0.000 0 2 0 2  1.000  1.000   3.13    0.00     0.00    0.00   1    8.00     0    0    0   240   0.0  1   1    7    0   0.000    0.000    0.000  1
  2   1    1  1 0 2     1  16   100  256  256     0.00000   6.03101 2.36606e-004    79   137  -0.25   0.22  -0.02  -10.40   12.13   99.28  1.200  0.000 0 2 0 2  1.000  1.000   3.13    0.00     0.00    0.00   1    8.00     0    0    0   240   0.0  1   1    7    0   0.000    0.000    0.000  1
  3   1    1  1 0 2     2  16   100  256  256     0.00000   6.03101 2.36606e-004   100   174  -0.25   0.22  -0.02  -10.41   12.12   98.08  1.200  0.000 0 2 0 2  1.000  1.000   3.13    0.00     0.00    0.00   1    8.00     0    0    0   240   0.0  1   1    7    0   0.000    0.000    0.000  1
  4   1    1  1 0 2     3  16   100  256  256     0.00000   6.03101 2.36606e-004   124   216  -0.25   0.22  -0.02  -10.41   12.12   96.88  1.200  0.000 0 2 0 2  1.000  1.000   3.13    0.00     0.00    0.00   1    8.00     0    0    0   240   0.0  1   1    7    0   0.000    0.000    0.000  1
  5   1    1  1 0 2     4  16   100  256  256     0.00000   6.03101 2.36606e-004   151   262  -0.25   0.22  -0.02  -10.42   12.11   95.68  1.200  0.000 0 2 0 2  1.000  1.000   3.13    0.00     0.00    0.00   1    8.00     0    0    0   240   0.0  1   1    7    0   0.000    0.000    0.000  1
  6   1    1  1 0 2     5  16   100  256  256     0.00000   6.03101 2.36606e-004   201   349  -0.25   0.22  -0.02  -10.42   12.11   94.48  1.200  0.000 0 2 0 2  1.000  1.000   3.13    0.00     0.00    0.00   1    8.00     0    0    0   240   0.0  1   1    7    0   0.000    0.000    0.000  1
  7   1    1  1 0 2     6  16   100  256  256     0.00000   6.03101 2.36606e-004   205   356  -0.25   0.22  -0.02  -10.43   12.10   93.28  1.200  0.000 0 2 0 2  1.000  1.000   3.13    0.00     0.00    0.00   1    8.00     0    0    0   240   0.0  1   1    7    0   0.000    0.000    0.000  1
  8   1    1  1 0 2     7  16   100  256  256     0.00000   6.03101 2.36606e-004   217   376  -0.25   0.22  -0.02  -10.43   12.10   92.08  1.200  0.000 0 2 0 2  1.000  1.000   3.13    0.00     0.00    0.00   1    8.00     0    0    0   240   0.0  1   1    7    0   0.000    0.000    0.000  1
  9   1    1  1 0 2     8  16   100  256  256     0.00000   6.03101 2.36606e-004   269   467  -0.25   0.22  -0.02  -10.44   12.09   90.88  1.200  0.000 0 2 0 2  1.000  1.000   3.13    0.00     0.00    0.00   1    8.00     0    0    0   240   0.0  1   1    7    0   0.000    0.000    0.000  1
 10   1    1  1 0 2     9  16   100  256  256     0.00000   6.03101 2.36606e-004   298   519  -0.25   0.22  -0.02  -10.44   12.09   89.68  1.200  0.000 0 2 0 2  1.000  1.000   3.13    0.00     0.00    0.00   1    8.00     0    0    0   240   0.0  1   1    7    0   0.000    0.000    0.000  1
 11   1    1  1 0 2    10  16   100  256  256     0.00000   6.03101 2.36606e-004   306   533  -0.25   0.22  -0.02  -10.45   12.08   88.48  1.200  0.000 0 2 0 2  1.000  1.000   3.13    0.00     0.00    0.00   1    8.00     0    0    0   240   0.0  1   1    7    0   0.000    0.000    0.000  1
 12   1    1  1 0 2    11  16   100  256  256     0.00000   6.03101 2.36606e-004   352   612  -0.25   0.22  -0.02  -10.45   12.07   87.28  1.200  0.000 0 2 0 2  1.000  1.000   3.13    0.00     0.00    0.00   1    8.00     0    0    0   240   0.0  1   1    7    0   0.000    0.000    0.000  1
 13   1    1  1 0 2    12  16   100  256  256     0.00000   6.03101 2.36606e-004   413   718  -0.25   0.22  -0.02  -10.46   12.07   86.08  1.200  0.000 0 2 0 2  1.000  1.000   3.13    0.00     0.00    0.00   1    8.00     0    0    0   240   0.0  1   1    7    0   0.000    0.000    0.000  1
 14   1    1  1 0 2    13  16   100  256  256     0.00000   6.03101 2.36606e-004   448   778  -0.25   0.22  -0.02  -10.46   12.06   84.88  1.200  0.000 0 2 0 2  1.000  1.000   3.13    0.00     0.00    0.00   1    8.00     0    0    0   240   0.0  1   1    7    0   0.000    0.000    0.000  1
 15   1    1  1 0 2    14  16   100  256  256     0.00000   6.03101 2.36606e-004   447   777  -0.25   0.22  -0.02  -10.47   12.06   83.68  1.200  0.000 0 2 0 2  1.000  1.000   3.13    0.00     0.00    0.00   1    8.00     0    0    0   240   0.0  1   1    7    0   0.000    0.000    0.000  1
 16   1    1  1 0 2    15  16   100  256  256     0.00000   6.03101 2.36606e-004   527   916  -0.25   0.22  -0.02  -10.47   12.05   82.48  1.200  0.000 0 2 0 2  1.000  1.000   3.13    0.00     0.00    0.00   1    8.00     0    0    0   240   0.0  1   1    7    0   0.000    0.000    0.000  1
 17   1    1  1 0 2    16  16   100  256  256     0.00000   6.03101 2.36606e-004   613  1065  -0.25   0.22  -0.02  -10.48   12.05   81.28  1.200  0.000 0 2 0 2  1.000  1.000   3.13    0.00     0.00    0.00   1    8.00     0    0    0   240   0.0  1   1    7    0   0.000    0.000    0.000  1
 18   1    1  1 0 2    17  16   100  256  256     0.00000   6.03101 2.36606e-004   600  1043  -0.25   0.22  -0.02  -10.48   12.04   80.08  1.200  0.000 0 2 0 2  1.000  1.000   3.13    0.00     0.00    0.00   1    8.00     0    0    0   240   0.0  1   1    7    0   0.000    0.000    0.000  1
 19   1    1  1 0 2    18  16   100  256  256     0.00000   6.03101 2.36606e-004   598  1039  -0.25   0.22  -0.02  -10.48   12.04   78.88  1.200  0.000 0 2 0 2  1.000  1.000   3.13    0.00     0.00    0.00   1    8.00     0    0    0   240   0.0  1   1    7    0   0.000    0.000    0.000  1
 20   1    1  1 0 2    19  16   100  256  256     0.00000   6.03101 2.36606e-004   632  1099  -0.25   0.22  -0.02  -10.49   12.03   77.68  1.200  0.000 0 2 0 2  1.000  1.000   3.13    0.00     0.00    0.00   1    8.00     0    0    0   240   0.0  1   1    7    0   0.000    0.000    0.000  1
 21   1    1  1 0 2    20  16   100  256  256     0.00000   6.03101 2.36606e-004   679  1181  -0.25   0.22  -0.02  -10.49   12.03   76.48  1.200  0.000 0 2 0 2  1.000  1.000   3.13    0.00     0.00    0.00   1    8.00     0    0    0   240   0.0  1   1    7    0   0.000    0.000    0.000  1
 22   1    1  1 0 2    21  16   100  256  256     0.00000   6.03101 2.36606e-004   713  1240  -0.25   0.22  -0.02  -10.50   12.02   75.28  1.200  0.000 0 2 0 2  1.000  1.000   3.13    0.00     0.00    0.00   1    8.00     0    0    0   240   0.0  1   1    7    0   0.000    0.000    0.000  1
 23   1    1  1 0 2    22  16   100  256  256     0.00000   6.03101 2.36606e-004   737  1282  -0.25   0.22  -0.02  -10.50   12.02   74.08  1.200  0.000 0 2 0 2  1.000  1.000   3.13    0.00     0.00    0.00   1    8.00     0    0    0   240   0.0  1   1    7    0   0.000    0.000    0.000  1
 24   1    1  1 0 2    23  16   100  256  256     0.00000   6.03101 2.36606e-004   714  1241  -0.25   0.22  -0.02  -10.51   12.01   72.88  1.200  0.000 0 2 0 2  1.000  1.000   3.13    0.00     0.00    0.00   1    8.00     0    0    0   240   0.0  1   1    7    0   0.000    0.000    0.000  1
 25   1    1  1 0 2    24  16   100  256  256     0.00000   6.03101 2.36606e-004   742  1289  -0.25   0.22  -0.02  -10.51   12.01   71.68  1.200  0.000 0 2 0 2  1.000  1.000   3.13    0.00     0.00    0.00   1    8.00     0    0    0   240   0.0  1   1    7    0   0.000    0.000    0.000  1
 26   1    1  1 0 2    25  16   100  256  256     0.00000   6.03101 2.36606e-004   732  1273  -0.25   0.22  -0.02  -10.52   12.00   70.48  1.200  0.000 0 2 0 2  1.000  1.000   3.13    0.00     0.00    0.00   1    8.00     0    0    0   240   0.0  1   1    7    0   0.000    0.000    0.000  1
 27   1    1  1 0 2    26  16   100  256  256     0.00000   6.03101 2.36606e-004   838  1457  -0.25   0.22  -0.02  -10.52   12.00   69.28  1.200  0.000 0 2 0 2  1.000  1.000   3.13    0.00     0.00    0.00   1    8.00     0    0    0   240   0.0  1   1    7    0   0.000    0.000    0.000  1
 28   1    1  1 0 2    27  16   100  256  256     0.00000   6.03101 2.36606e-004   853  1483  -0.25   0.22  -0.02  -10.53   11.99   68.08  1.200  0.000 0 2 0 2  1.000  1.000   3.13    0.00     0.00    0.00   1    8.00     0    0    0   240   0.0  1   1    7    0   0.000    0.000    0.000  1
 29   1    1  1 0 2    28  16   100  256  256     0.00000   6.03101 2.36606e-004   870  1513  -0.25   0.22  -0.02  -10.53   11.98   66.88  1.200  0.000 0 2 0 2  1.000  1.000   3.13    0.00     0.00    0.00   1    8.00     0    0    0   240   0.0  1   1    7    0   0.000    0.000    0.000  1
 30   1    1  1 0 2    29  16   100  256  256     0.00000   6.03101 2.36606e-004   884  1537  -0.25   0.22  -0.02  -10.54   11.98   65.68  1.200  0.000 0 2 0 2  1.000  1.000   3.13    0.00     0.00    0.00   1    8.00     0    0    0   240   0.0  1   1    7    0   0.000    0.000    0.000  1
 31   1    1  1 0 2    30  16   100  256  256     0.00000   6.03101 2.36606e-004   897  1560  -0.25   0.22  -0.02  -10.54   11.97   64.48  1.200  0.000 0 2 0 2  1.000  1.000   3.13    0.00     0.00    0.00   1    8.00     0    0    0   240   0.0  1   1    7    0   0.000    0.000    0.000  1
 32   1    1  1 0 2    31  16   100  256  256     0.00000   6.03101 2.36606e-004   937  1628  -0.25   0.22  -0.02  -10.55   11.97   63.28  1.200  0.000 0 2 0 2  1.000  1.000   3.13    0.00     0.00    0.00   1    8.00     0    0    0   240   0.0  1   1    7    0   0.000    0.000    0.000  1
 33   1    1  1 0 2    32  16   100  256  256     0.00000   6.03101 2.36606e-004  1021  1775  -0.25   0.22  -0.02  -10.55   11.96   62.08  1.200  0.000 0 2 0 2  1.000  1.000   3.13    0.00     0.00    0.00   1    8.00     0    0    0   240   0.0  1   1    7    0   0.000    0.000    0.000  1
 34   1    1  1 0 2    33  16   100  256  256     0.00000   6.03101 2.36606e-004  1078  1873  -0.25   0.22  -0.02  -10.56   11.96   60.88  1.200  0.000 0 2 0 2  1.000  1.000   3.13    0.00     0.00    0.00   1    8.00     0    0    0   240   0.0  1   1    7    0   0.000    0.000    0.000  1
 35   1    1  1 0 2    34  16   100  256  256     0.00000   6.03101 2.36606e-004  1099  1910  -0.25   0.22  -0.02  -10.56   11.95   59.68  1.200  0.000 0 2 0 2  1.000  1.000   3.13    0.00     0.00    0.00   1    8.00     0    0    0   240   0.0  1   1    7    0   0.000    0.000    0.000  1
 36   1    1  1 0 2    35  16   100  256  256     0.00000   6.03101 2.36606e-004  1117  1942  -0.25   0.22  -0.02  -10.56   11.95   58.48  1.200  0.000 0 2 0 2  1.000  1.000   3.13    0.00     0.00    0.00   1    8.00     0    0    0   240   0.0  1   1    7    0   0.000    0.000    0.000  1
 37   1    1  1 0 2    36  16   100  256  256     0.00000   6.03101 2.36606e-004  1125  1955  -0.25   0.22  -0.02  -10.57   11.94   57.28  1.200  0.000 0 2 0 2  1.000  1.000   3.13    0.00     0.00    0.00   1    8.00     0    0    0   240   0.0  1   1    7    0   0.000    0.000    0.000  1
 38   1    1  1 0 2    37  16   100  256  256     0.00000   6.03101 2.36606e-004  1140  1982  -0.25   0.22  -0.02  -10.57   11.94   56.08  1.200  0.000 0 2 0 2  1.000  1.000   3.13    0.00     0.00    0.00   1    8.00     0    0    0   240   0.0  1   1    7    0   0.000    0.000    0.000  1
 39   1    1  1 0 2    38  16   100  256  256     0.00000   6.03101 2.36606e-004  1154  2006  -0.25   0.22  -0.02  -10.58   11.93   54.88  1.200  0.000 0 2 0 2  1.000  1.000   3.13    0.00     0.00    0.00   1    8.00     0    0    0   240   0.0  1   1    7    0   0.000    0.000    0.000  1
 40   1    1  1 0 2    39  16   100  256  256     0.00000   6.03101 2.36606e-004  1159  2014  -0.25   0.22  -0.02  -10.58   11.93   53.68  1.200  0.000 0 2 0 2  1.000  1.000   3.13    0.00     0.00    0.00   1    8.00     0    0    0   240   0.0  1   1    7    0   0.000    0.000    0.000  1
 41   1    1  1 0 2    40  16   100  256  256     0.00000   6.03101 2.36606e-004  1172  2037  -0.25   0.22  -0.02  -10.59   11.92   52.48  1.200  0.000 0 2 0 2  1.000  1.000   3.13    0.00     0.00    0.00   1    8.00     0    0    0   240   0.0  1   1    7    0   0.000    0.000    0.000  1
 42   1    1  1 0 2    41  16   100  256  256     0.00000   6.03101 2.36606e-004  1186  2061  -0.25   0.22  -0.02  -10.59   11.92   51.28  1.200  0.000 0 2 0 2  1.000  1.000   3.13    0.00     0.00    0.00   1    8.00     0    0    0   240   0.0  1   1    7    0   0.000    0.000    0.000  1
 43   1    1  1 0 2    42  16   100  256  256     0.00000   6.03101 2.36606e-004  1131  1966  -0.25   0.22  -0.02  -10.60   11.91   50.08  1.200  0.000 0 2 0 2  1.000  1.000   3.13    0.00     0.00    0.00   1    8.00     0    0    0   240   0.0  1   1    7    0   0.000    0.000    0.000  1
 44   1    1  1 0 2    43  16   100  256  256     0.00000   6.03101 2.36606e-004  1144  1988  -0.25   0.22  -0.02  -10.60   11.91   48.88  1.200  0.000 0 2 0 2  1.000  1.000   3.13    0.00     0.00    0.00   1    8.00     0    0    0   240   0.0  1   1    7    0   0.000    0.000    0.000  1
 45   1    1  1 0 2    44  16   100  256  256     0.00000   6.03101 2.36606e-004  1154  2006  -0.25   0.22  -0.02  -10.61   11.90   47.68  1.200  0.000 0 2 0 2  1.000  1.000   3.13    0.00     0.00    0.00   1    8.00     0    0    0   240   0.0  1   1    7    0   0.000    0.000    0.000  1
 46   1    1  1 0 2    45  16   100  256  256     0.00000   6.03101 2.36606e-004  1150  1999  -0.25   0.22  -0.02  -10.61   11.89   46.48  1.200  0.000 0 2 0 2  1.000  1.000   3.13    0.00     0.00    0.00   1    8.00     0    0    0   240   0.0  1   1    7    0   0.000    0.000    0.000  1
 47   1    1  1 0 2    46  16   100  256  256     0.00000   6.03101 2.36606e-004  1168  2031  -0.25   0.22  -0.02  -10.62   11.89   45.28  1.200  0.000 0 2 0 2  1.000  1.000   3.13    0.00     0.00    0.00   1    8.00     0    0    0   240   0.0  1   1    7    0   0.000    0.000    0.000  1
 48   1    1  1 0 2    47  16   100  256  256     0.00000   6.03101 2.36606e-004  1181  2052  -0.25   0.22  -0.02  -10.62   11.88   44.08  1.200  0.000 0 2 0 2  1.000  1.000   3.13    0.00     0.00    0.00   1    8.00     0    0    0   240   0.0  1   1    7    0   0.000    0.000    0.000  1
 49   1    1  1 0 2    48  16   100  256  256     0.00000   6.03101 2.36606e-004  1156  2010  -0.25   0.22  -0.02  -10.63   11.88   42.88  1.200  0.000 0 2 0 2  1.000  1.000   3.13    0.00     0.00    0.00   1    8.00     0    0    0   240   0.0  1   1    7    0   0.000    0.000    0.000  1
 50   1    1  1 0 2    49  16   100  256  256     0.00000   6.03101 2.36606e-004  1136  1974  -0.25   0.22  -0.02  -10.63   11.87   41.68  1.200  0.000 0 2 0 2  1.000  1.000   3.13    0.00     0.00    0.00   1    8.00     0    0    0   240   0.0  1   1    7    0   0.000    0.000    0.000  1
 51   1    1  1 0 2    50  16   100  256  256     0.00000   6.03101 2.36606e-004  1110  1930  -0.25   0.22  -0.02  -10.64   11.87   40.48  1.200  0.000 0 2 0 2  1.000  1.000   3.13    0.00     0.00    0.00   1    8.00     0    0    0   240   0.0  1   1    7    0   0.000    0.000    0.000  1
 52   1    1  1 0 2    51  16   100  256  256     0.00000   6.03101 2.36606e-004  1111  1931  -0.25   0.22  -0.02  -10.64   11.86   39.28  1.200  0.000 0 2 0 2  1.000  1.000   3.13    0.00     0.00    0.00   1    8.00     0    0    0   240   0.0  1   1    7    0   0.000    0.000    0.000  1
 53   1    1  1 0 2    52  16   100  256  256     0.00000   6.03101 2.36606e-004  1142  1985  -0.25   0.22  -0.02  -10.64   11.86   38.08  1.200  0.000 0 2 0 2  1.000  1.000   3.13    0.00     0.00    0.00   1    8.00     0    0    0   240   0.0  1   1    7    0   0.000    0.000    0.000  1
 54   1    1  1 0 2    53  16   100  256  256     0.00000   6.03101 2.36606e-004  1172  2038  -0.25   0.22  -0.02  -10.65   11.85   36.88  1.200  0.000 0 2 0 2  1.000  1.000   3.13    0.00     0.00    0.00   1    8.00     0    0    0   240   0.0  1   1    7    0   0.000    0.000    0.000  1
 55   1    1  1 0 2    54  16   100  256  256     0.00000   6.03101 2.36606e-004  1189  2068  -0.25   0.22  -0.02  -10.65   11.85   35.68  1.200  0.000 0 2 0 2  1.000  1.000   3.13    0.00     0.00    0.00   1    8.00     0    0    0   240   0.0  1   1    7    0   0.000    0.000    0.000  1
 56   1    1  1 0 2    55  16   100  256  256     0.00000   6.03101 2.36606e-004  1196  2079  -0.25   0.22  -0.02  -10.66   11.84   34.48  1.200  0.000 0 2 0 2  1.000  1.000   3.13    0.00     0.00    0.00   1    8.00     0    0    0   240   0.0  1   1    7    0   0.000    0.000    0.000  1
 57   1    1  1 0 2    56  16   100  256  256     0.00000   6.03101 2.36606e-004  1180  2051  -0.25   0.22  -0.02  -10.66   11.84   33.28  1.200  0.000 0 2 0 2  1.000  1.000   3.13    0.00     0.00    0.00   1    8.00     0    0    0   240   0.0  1   1    7    0   0.000    0.000    0.000  1
 58   1    1  1 0 2    57  16   100  256  256     0.00000   6.03101 2.36606e-004  1188  2065  -0.25   0.22  -0.02  -10.67   11.83   32.08  1.200  0.000 0 2 0 2  1.000  1.000   3.13    0.00     0.00    0.00   1    8.00     0    0    0   240   0.0  1   1    7    0   0.000    0.000    0.000  1
 59   1    1  1 0 2    58  16   100  256  256     0.00000   6.03101 2.36606e-004  1187  2063  -0.25   0.22  -0.02  -10.67   11.83   30.88  1.200  0.000 0 2 0 2  1.000  1.000   3.13    0.00     0.00    0.00   1    8.00     0    0    0   240   0.0  1   1    7    0   0.000    0.000    0.000  1
 60   1    1  1 0 2    59  16   100  256  256     0.00000   6.03101 2.36606e-004  1221  2122  -0.25   0.22  -0.02  -10.68   11.82   29.68  1.200  0.000 0 2 0 2  1.000  1.000   3.13    0.00     0.00    0.00   1    8.00     0    0    0   240   0.0  1   1    7    0   0.000    0.000    0.000  1
 61   1    1  1 0 2    60  16   100  256  256     0.00000   6.03101 2.36606e-004  1228  2134  -0.25   0.22  -0.02  -10.68   11.82   28.48  1.200  0.000 0 2 0 2  1.000  1.000   3.13    0.00     0.00    0.00   1    8.00     0    0    0   240   0.0  1   1    7    0   0.000    0.000    0.000  1
 62   1    1  1 0 2    61  16   100  256  256     0.00000   6.03101 2.36606e-004  1237  2150  -0.25   0.22  -0.02  -10.69   11.81   27.28  1.200  0.000 0 2 0 2  1.000  1.000   3.13    0.00     0.00    0.00   1    8.00     0    0    0   240   0.0  1   1    7    0   0.000    0.000    0.000  1
 63   1    1  1 0 2    62  16   100  256  256     0.00000   6.03101 2.36606e-004  1226  2131  -0.25   0.22  -0.02  -10.69   11.80   26.08  1.200  0.000 0 2 0 2  1.000  1.000   3.13    0.00     0.00    0.00   1    8.00     0    0    0   240   0.0  1   1    7    0   0.000    0.000    0.000  1
 64   1    1  1 0 2    63  16   100  256  256     0.00000   6.03101 2.36606e-004  1233  2143  -0.25   0.22  -0.02  -10.70   11.80   24.88  1.200  0.000 0 2 0 2  1.000  1.000   3.13    0.00     0.00    0.00   1    8.00     0    0    0   240   0.0  1   1    7    0   0.000    0.000    0.000  1
 65   1    1  1 0 2    64  16   100  256  256     0.00000   6.03101 2.36606e-004  1272  2211  -0.25   0.22  -0.02  -10.70   11.79   23.68  1.200  0.000 0 2 0 2  1.000  1.000   3.13    0.00     0.00    0.00   1    8.00     0    0    0   240   0.0  1   1    7    0   0.000    0.000    0.000  1
 66   1    1  1 0 2    65  16   100  256  256     0.00000   6.03101 2.36606e-004  1281  2227  -0.25   0.22  -0.02  -10.71   11.79   22.48  1.200  0.000 0 2 0 2  1.000  1.000   3.13    0.00     0.00    0.00   1    8.00     0    0    0   240   0.0  1   1    7    0   0.000    0.000    0.000  1
 67   1    1  1 0 2    66  16   100  256  256     0.00000   6.03101 2.36606e-004  1315  2286  -0.25   0.22  -0.02  -10.71   11.78   21.28  1.200  0.000 0 2 0 2  1.000  1.000   3.13    0.00     0.00    0.00   1    8.00     0    0    0   240   0.0  1   1    7    0   0.000    0.000    0.000  1
 68   1    1  1 0 2    67  16   100  256  256     0.00000   6.03101 2.36606e-004  1294  2249  -0.25   0.22  -0.02  -10.72   11.78   20.08  1.200  0.000 0 2 0 2  1.000  1.000   3.13    0.00     0.00    0.00   1    8.00     0    0    0   240   0.0  1   1    7    0   0.000    0.000    0.000  1
 69   1    1  1 0 2    68  16   100  256  256     0.00000   6.03101 2.36606e-004  1306  2271  -0.25   0.22  -0.02  -10.72   11.77   18.88  1.200  0.000 0 2 0 2  1.000  1.000   3.13    0.00     0.00    0.00   1    8.00     0    0    0   240   0.0  1   1    7    0   0.000    0.000    0.000  1
 70   1    1  1 0 2    69  16   100  256  256     0.00000   6.03101 2.36606e-004  1252  2176  -0.25   0.22  -0.02  -10.72   11.77   17.68  1.200  0.000 0 2 0 2  1.000  1.000   3.13    0.00     0.00    0.00   1    8.00     0    0    0   240   0.0  1   1    7    0   0.000    0.000    0.000  1
 71   1    1  1 0 2    70  16   100  256  256     0.00000   6.03101 2.36606e-004  1160  2017  -0.25   0.22  -0.02  -10.73   11.76   16.48  1.200  0.000 0 2 0 2  1.000  1.000   3.13    0.00     0.00    0.00   1    8.00     0    0    0   240   0.0  1   1    7    0   0.000    0.000    0.000  1
 72   1    1  1 0 2    71  16   100  256  256     0.00000   6.03101 2.36606e-004  1087  1890  -0.25   0.22  -0.02  -10.73   11.76   15.28  1.200  0.000 0 2 0 2  1.000  1.000   3.13    0.00     0.00    0.00   1    8.00     0    0    0   240   0.0  1   1    7    0   0.000    0.000    0.000  1
 73   1    1  1 0 2    72  16   100  256  256     0.00000   6.03101 2.36606e-004  1134  1971  -0.25   0.22  -0.02  -10.74   11.75   14.08  1.200  0.000 0 2 0 2  1.000  1.000   3.13    0.00     0.00    0.00   1    8.00     0    0    0   240   0.0  1   1    7    0   0.000    0.000    0.000  1
 74   1    1  1 0 2    73  16   100  256  256     0.00000   6.03101 2.36606e-004  1026  1783  -0.25   0.22  -0.02  -10.74   11.75   12.88  1.200  0.000 0 2 0 2  1.000  1.000   3.13    0.00     0.00    0.00   1    8.00     0    0    0   240   0.0  1   1    7    0   0.000    0.000    0.000  1
 75   1    1  1 0 2    74  16   100  256  256     0.00000   6.03101 2.36606e-004  1050  1826  -0.25   0.22  -0.02  -10.75   11.74   11.68  1.200  0.000 0 2 0 2  1.000  1.000   3.13    0.00     0.00    0.00   1    8.00     0    0    0   240   0.0  1   1    7    0   0.000    0.000    0.000  1
 76   1    1  1 0 2    75  16   100  256  256     0.00000   6.03101 2.36606e-004  1027  1786  -0.25   0.22  -0.02  -10.75   11.74   10.48  1.200  0.000 0 2 0 2  1.000  1.000   3.13    0.00     0.00    0.00   1    8.00     0    0    0   240   0.0  1   1    7    0   0.000    0.000    0.000  1
 77   1    1  1 0 2    76  16   100  256  256     0.00000   6.03101 2.36606e-004  1034  1797  -0.25   0.22  -0.02  -10.76   11.73    9.28  1.200  0.000 0 2 0 2  1.000  1.000   3.13    0.00     0.00    0.00   1    8.00     0    0    0   240   0.0  1   1    7    0   0.000    0.000    0.000  1
 78   1    1  1 0 2    77  16   100  256  256     0.00000   6.03101 2.36606e-004  1045  1816  -0.25   0.22  -0.02  -10.76   11.73    8.08  1.200  0.000 0 2 0 2  1.000  1.000   3.13    0.00     0.00    0.00   1    8.00     0    0    0   240   0.0  1   1    7    0   0.000    0.000    0.000  1
 79   1    1  1 0 2    78  16   100  256  256     0.00000   6.03101 2.36606e-004  1044  1814  -0.25   0.22  -0.02  -10.77   11.72    6.88  1.200  0.000 0 2 0 2  1.000  1.000   3.13    0.00     0.00    0.00   1    8.00     0    0    0   240   0.0  1   1    7    0   0.000    0.000    0.000  1
 80   1    1  1 0 2    79  16   100  256  256     0.00000   6.03101 2.36606e-004  1046  1818  -0.25   0.22  -0.02  -10.77   11.72    5.68  1.200  0.000 0 2 0 2  1.000  1.000   3.13    0.00     0.00    0.00   1    8.00     0    0    0   240   0.0  1   1    7    0   0.000    0.000    0.000  1
 81   1    1  1 0 2    80  16   100  256  256     0.00000   6.03101 2.36606e-004  1036  1800  -0.25   0.22  -0.02  -10.78   11.71    4.48  1.200  0.000 0 2 0 2  1.000  1.000   3.13    0.00     0.00    0.00   1    8.00     0    0    0   240   0.0  1   1    7    0   0.000    0.000    0.000  1
 82   1    1  1 0 2    81  16   100  256  256     0.00000   6.03101 2.36606e-004  1042  1811  -0.25   0.22  -0.02  -10.78   11.70    3.28  1.200  0.000 0 2 0 2  1.000  1.000   3.13    0.00     0.00    0.00   1    8.00     0    0    0   240   0.0  1   1    7    0   0.000    0.000    0.000  1
 83   1    1  1 0 2    82  16   100  256  256     0.00000   6.03101 2.36606e-004  1043  1814  -0.25   0.22  -0.02  -10.79   11.70    2.08  1.200  0.000 0 2 0 2  1.000  1.000   3.13    0.00     0.00    0.00   1    8.00     0    0    0   240   0.0  1   1    7    0   0.000    0.000    0.000  1
 84   1    1  1 0 2    83  16   100  256  256     0.00000   6.03101 2.36606e-004  1077  1871  -0.25   0.22  -0.02  -10.79   11.69    0.88  1.200  0.000 0 2 0 2  1.000  1.000   3.13    0.00     0.00    0.00   1    8.00     0    0    0   240   0.0  1   1    7    0   0.000    0.000    0.000  1
