# === DATA DESCRIPTION FILE ======================================================
#
# CAUTION - Investigational device.
# Limited by Federal Law to investigational use.
#
#
# CLINICAL TRYOUT             Research image export tool     V4.2
#
# === GENERAL INFORMATION ========================================================
#
.    Protocol name                      :   WIP T2W_VISTA_2mmiso_fatsat SENSE
.    Series Type                        :   Image   MRSERIES
.    Acquisition nr                     :   15
.    Reconstruction nr                  :   1
.    Scan Duration [sec]                :   108
.    Max. number of cardiac phases      :   1
.    Max. number of echoes              :   1
.    Max. number of slices/locations    :   180
.    Max. number of dynamics            :   1
.    Max. number of mixes               :   1
.    Patient position                   :   Head First Supine
.    Preparation direction              :   Anterior-Posterior
.    Technique                          :   TSE
.    Scan resolution  (x, y)            :   120  118
.    Scan mode                          :   3D
.    Repetition time [ms]               :   2500.000  
.    FOV (ap,fh,rl) [mm]                :   240.000  200.000  180.000
.    Water Fat shift [pixels]           :   1.050
.    Angulation midslice(ap,fh,rl)[degr]:   1.257  1.161  0.063
.    Off Centre midslice(ap,fh,rl) [mm] :   -20.452  -4.111  0.900
.    Flow compensation <0=no 1=yes> ?   :   0
.    Presaturation     <0=no 1=yes> ?   :   0
.    Phase encoding velocity [cm/sec]   :   0.000000  0.000000  0.000000
.    MTC               <0=no 1=yes> ?   :   0
.    SPIR              <0=no 1=yes> ?   :   1
.    EPI factor        <0,1=no EPI>     :   1
.    Dynamic scan      <0=no 1=yes> ?   :   0
.    Diffusion         <0=no 1=yes> ?   :   0
.    Diffusion echo time [ms]           :   0.0000
.    Max. number of diffusion values    :   1
.    Max. number of gradient orients    :   1
.    Number of label types   <0=no ASL> :   0
#
# === PIXEL VALUES =============================================================
#  PV = pixel value in REC file, FP = floating point value, DV = displayed value on console
#  RS = rescale slope,           RI = rescale intercept,    SS = scale slope
#  DV = PV * RS + RI             FP = DV / (RS * SS)
#
# === IMAGE INFORMATION DEFINITION =============================================
#  The rest of this file contains ONE line per image, this line contains the following information:
#
#  slice number                             (integer)
#  echo number                              (integer)
#  dynamic scan number                      (integer)
#  cardiac phase number                     (integer)
#  image_type_mr                            (integer)
#  scanning sequence                        (integer)
#  index in REC file (in images)            (integer)
#  image pixel size (in bits)               (integer)
#  scan percentage                          (integer)
#  recon resolution (x y)                   (2*integer)
#  rescale intercept                        (float)
#  rescale slope                            (float)
#  scale slope                              (float)
#  window center                            (integer)
#  window width                             (integer)
#  image angulation (ap,fh,rl in degrees )  (3*float)
#  image offcentre (ap,fh,rl in mm )        (3*float)
#  slice thickness (in mm )                 (float)
#  slice gap (in mm )                       (float)
#  image_display_orientation                (integer)
#  slice orientation ( TRA/SAG/COR )        (integer)
#  fmri_status_indication                   (integer)
#  image_type_ed_es  (end diast/end syst)   (integer)
#  pixel spacing (x,y) (in mm)              (2*float)
#  echo_time                                (float)
#  dyn_scan_begin_time                      (float)
#  trigger_time                             (float)
#  diffusion_b_factor                       (float)
#  number of averages                       (integer)
#  image_flip_angle (in degrees)            (float)
#  cardiac frequency   (bpm)                (integer)
#  minimum RR-interval (in ms)              (integer)
#  maximum RR-interval (in ms)              (integer)
#  TURBO factor  <0=no turbo>               (integer)
#  Inversion delay (in ms)                  (float)
#  diffusion b value number    (imagekey!)  (integer)
#  gradient orientation number (imagekey!)  (integer)
#  contrast type                            (string)
#  diffusion anisotropy type                (string)
#  diffusion (ap, fh, rl)                   (3*float)
#  label type (ASL)            (imagekey!)  (integer)
#
# === IMAGE INFORMATION ==========================================================
#  sl ec  dyn ph ty    idx pix scan% rec size                (re)scale              window        angulation              offcentre        thick   gap   info      spacing     echo     dtime   ttime    diff  avg  flip    freq   RR-int  turbo delay b grad cont anis         diffusion       L.ty

  1   1    1  1 0 1     0  16    77  256  256     0.00000   1.35018 1.49453e-004    43    74   1.26   1.16   0.06  -18.64   -6.07   90.36  2.000 -1.000 0 2 0 2  0.943  0.943 287.22    0.00     0.00    0.00   2   90.00     0    0    0   100   0.0  1   1    8    0   0.000    0.000    0.000  1
  2   1    1  1 0 1     1  16    77  256  256     0.00000   1.35018 1.49453e-004    64   112   1.26   1.16   0.06  -18.66   -6.05   89.36  2.000 -1.000 0 2 0 2  0.943  0.943 287.22    0.00     0.00    0.00   2   90.00     0    0    0   100   0.0  1   1    8    0   0.000    0.000    0.000  1
  3   1    1  1 0 1     2  16    77  256  256     0.00000   1.35018 1.49453e-004    69   120   1.26   1.16   0.06  -18.68   -6.03   88.36  2.000 -1.000 0 2 0 2  0.943  0.943 287.22    0.00     0.00    0.00   2   90.00     0    0    0   100   0.0  1   1    8    0   0.000    0.000    0.000  1
  4   1    1  1 0 1     3  16    77  256  256     0.00000   1.35018 1.49453e-004    75   130   1.26   1.16   0.06  -18.70   -6.01   87.36  2.000 -1.000 0 2 0 2  0.943  0.943 287.22    0.00     0.00    0.00   2   90.00     0    0    0   100   0.0  1   1    8    0   0.000    0.000    0.000  1
  5   1    1  1 0 1     4  16    77  256  256     0.00000   1.35018 1.49453e-004    80   139   1.26   1.16   0.06  -18.72   -5.98   86.36  2.000 -1.000 0 2 0 2  0.943  0.943 287.22    0.00     0.00    0.00   2   90.00     0    0    0   100   0.0  1   1    8    0   0.000    0.000    0.000  1
  6   1    1  1 0 1     5  16    77  256  256     0.00000   1.35018 1.49453e-004    87   151   1.26   1.16   0.06  -18.74   -5.96   85.36  2.000 -1.000 0 2 0 2  0.943  0.943 287.22    0.00     0.00    0.00   2   90.00     0    0    0   100   0.0  1   1    8    0   0.000    0.000    0.000  1
  7   1    1  1 0 1     6  16    77  256  256     0.00000   1.35018 1.49453e-004    94   163   1.26   1.16   0.06  -18.76   -5.94   84.36  2.000 -1.000 0 2 0 2  0.943  0.943 287.22    0.00     0.00    0.00   2   90.00     0    0    0   100   0.0  1   1    8    0   0.000    0.000    0.000  1
  8   1    1  1 0 1     7  16    77  256  256     0.00000   1.35018 1.49453e-004    95   164   1.26   1.16   0.06  -18.78   -5.92   83.36  2.000 -1.000 0 2 0 2  0.943  0.943 287.22    0.00     0.00    0.00   2   90.00     0    0    0   100   0.0  1   1    8    0   0.000    0.000    0.000  1
  9   1    1  1 0 1     8  16    77  256  256     0.00000   1.35018 1.49453e-004   102   177   1.26   1.16   0.06  -18.80   -5.90   82.36  2.000 -1.000 0 2 0 2  0.943  0.943 287.22    0.00     0.00    0.00   2   90.00     0    0    0   100   0.0  1   1    8    0   0.000    0.000    0.000  1
 10   1    1  1 0 1     9  16    77  256  256     0.00000   1.35018 1.49453e-004   110   191   1.26   1.16   0.06  -18.82   -5.87   81.36  2.000 -1.000 0 2 0 2  0.943  0.943 287.22    0.00     0.00    0.00   2   90.00     0    0    0   100   0.0  1   1    8    0   0.000    0.000    0.000  1
 11   1    1  1 0 1    10  16    77  256  256     0.00000   1.35018 1.49453e-004   106   185   1.26   1.16   0.06  -18.84   -5.85   80.36  2.000 -1.000 0 2 0 2  0.943  0.943 287.22    0.00     0.00    0.00   2   90.00     0    0    0   100   0.0  1   1    8    0   0.000    0.000    0.000  1
 12   1    1  1 0 1    11  16    77  256  256     0.00000   1.35018 1.49453e-004   109   189   1.26   1.16   0.06  -18.86   -5.83   79.36  2.000 -1.000 0 2 0 2  0.943  0.943 287.22    0.00     0.00    0.00   2   90.00     0    0    0   100   0.0  1   1    8    0   0.000    0.000    0.000  1
 13   1    1  1 0 1    12  16    77  256  256     0.00000   1.35018 1.49453e-004   107   187   1.26   1.16   0.06  -18.88   -5.81   78.36  2.000 -1.000 0 2 0 2  0.943  0.943 287.22    0.00     0.00    0.00   2   90.00     0    0    0   100   0.0  1   1    8    0   0.000    0.000    0.000  1
 14   1    1  1 0 1    13  16    77  256  256     0.00000   1.35018 1.49453e-004   108   188   1.26   1.16   0.06  -18.90   -5.79   77.37  2.000 -1.000 0 2 0 2  0.943  0.943 287.22    0.00     0.00    0.00   2   90.00     0    0    0   100   0.0  1   1    8    0   0.000    0.000    0.000  1
 15   1    1  1 0 1    14  16    77  256  256     0.00000   1.35018 1.49453e-004   114   198   1.26   1.16   0.06  -18.92   -5.77   76.37  2.000 -1.000 0 2 0 2  0.943  0.943 287.22    0.00     0.00    0.00   2   90.00     0    0    0   100   0.0  1   1    8    0   0.000    0.000    0.000  1
 16   1    1  1 0 1    15  16    77  256  256     0.00000   1.35018 1.49453e-004   118   206   1.26   1.16   0.06  -18.94   -5.74   75.37  2.000 -1.000 0 2 0 2  0.943  0.943 287.22    0.00     0.00    0.00   2   90.00     0    0    0   100   0.0  1   1    8    0   0.000    0.000    0.000  1
 17   1    1  1 0 1    16  16    77  256  256     0.00000   1.35018 1.49453e-004   136   236   1.26   1.16   0.06  -18.96   -5.72   74.37  2.000 -1.000 0 2 0 2  0.943  0.943 287.22    0.00     0.00    0.00   2   90.00     0    0    0   100   0.0  1   1    8    0   0.000    0.000    0.000  1
 18   1    1  1 0 1    17  16    77  256  256     0.00000   1.35018 1.49453e-004   149   259   1.26   1.16   0.06  -18.98   -5.70   73.37  2.000 -1.000 0 2 0 2  0.943  0.943 287.22    0.00     0.00    0.00   2   90.00     0    0    0   100   0.0  1   1    8    0   0.000    0.000    0.000  1
 19   1    1  1 0 1    18  16    77  256  256     0.00000   1.35018 1.49453e-004   134   233   1.26   1.16   0.06  -19.00   -5.68   72.37  2.000 -1.000 0 2 0 2  0.943  0.943 287.22    0.00     0.00    0.00   2   90.00     0    0    0   100   0.0  1   1    8    0   0.000    0.000    0.000  1
 20   1    1  1 0 1    19  16    77  256  256     0.00000   1.35018 1.49453e-004   153   265   1.26   1.16   0.06  -19.02   -5.66   71.37  2.000 -1.000 0 2 0 2  0.943  0.943 287.22    0.00     0.00    0.00   2   90.00     0    0    0   100   0.0  1   1    8    0   0.000    0.000    0.000  1
 21   1    1  1 0 1    20  16    77  256  256     0.00000   1.35018 1.49453e-004   316   549   1.26   1.16   0.06  -19.04   -5.63   70.37  2.000 -1.000 0 2 0 2  0.943  0.943 287.22    0.00     0.00    0.00   2   90.00     0    0    0   100   0.0  1   1    8    0   0.000    0.000    0.000  1
 22   1    1  1 0 1    21  16    77  256  256     0.00000   1.35018 1.49453e-004   475   825   1.26   1.16   0.06  -19.06   -5.61   69.37  2.000 -1.000 0 2 0 2  0.943  0.943 287.22    0.00     0.00    0.00   2   90.00     0    0    0   100   0.0  1   1    8    0   0.000    0.000    0.000  1
 23   1    1  1 0 1    22  16    77  256  256     0.00000   1.35018 1.49453e-004   604  1050   1.26   1.16   0.06  -19.08   -5.59   68.37  2.000 -1.000 0 2 0 2  0.943  0.943 287.22    0.00     0.00    0.00   2   90.00     0    0    0   100   0.0  1   1    8    0   0.000    0.000    0.000  1
 24   1    1  1 0 1    23  16    77  256  256     0.00000   1.35018 1.49453e-004   628  1091   1.26   1.16   0.06  -19.10   -5.57   67.37  2.000 -1.000 0 2 0 2  0.943  0.943 287.22    0.00     0.00    0.00   2   90.00     0    0    0   100   0.0  1   1    8    0   0.000    0.000    0.000  1
 25   1    1  1 0 1    24  16    77  256  256     0.00000   1.35018 1.49453e-004   580  1009   1.26   1.16   0.06  -19.12   -5.55   66.37  2.000 -1.000 0 2 0 2  0.943  0.943 287.22    0.00     0.00    0.00   2   90.00     0    0    0   100   0.0  1   1    8    0   0.000    0.000    0.000  1
 26   1    1  1 0 1    25  16    77  256  256     0.00000   1.35018 1.49453e-004   576  1002   1.26   1.16   0.06  -19.14   -5.52   65.37  2.000 -1.000 0 2 0 2  0.943  0.943 287.22    0.00     0.00    0.00   2   90.00     0    0    0   100   0.0  1   1    8    0   0.000    0.000    0.000  1
 27   1    1  1 0 1    26  16    77  256  256     0.00000   1.35018 1.49453e-004   595  1034   1.26   1.16   0.06  -19.16   -5.50   64.37  2.000 -1.000 0 2 0 2  0.943  0.943 287.22    0.00     0.00    0.00   2   90.00     0    0    0   100   0.0  1   1    8    0   0.000    0.000    0.000  1
 28   1    1  1 0 1    27  16    77  256  256     0.00000   1.35018 1.49453e-004   592  1029   1.26   1.16   0.06  -19.18   -5.48   63.37  2.000 -1.000 0 2 0 2  0.943  0.943 287.22    0.00     0.00    0.00   2   90.00     0    0    0   100   0.0  1   1    8    0   0.000    0.000    0.000  1
 29   1    1  1 0 1    28  16    77  256  256     0.00000   1.35018 1.49453e-004   607  1056   1.26   1.16   0.06  -19.20   -5.46   62.37  2.000 -1.000 0 2 0 2  0.943  0.943 287.22    0.00     0.00    0.00   2   90.00     0    0    0   100   0.0  1   1    8    0   0.000    0.000    0.000  1
 30   1    1  1 0 1    29  16    77  256  256     0.00000   1.35018 1.49453e-004   606  1054   1.26   1.16   0.06  -19.22   -5.44   61.37  2.000 -1.000 0 2 0 2  0.943  0.943 287.22    0.00     0.00    0.00   2   90.00     0    0    0   100   0.0  1   1    8    0   0.000    0.000    0.000  1
 31   1    1  1 0 1    30  16    77  256  256     0.00000   1.35018 1.49453e-004   614  1067   1.26   1.16   0.06  -19.25   -5.41   60.37  2.000 -1.000 0 2 0 2  0.943  0.943 287.22    0.00     0.00    0.00   2   90.00     0    0    0   100   0.0  1   1    8    0   0.000    0.000    0.000  1
 32   1    1  1 0 1    31  16    77  256  256     0.00000   1.35018 1.49453e-004   623  1083   1.26   1.16   0.06  -19.27   -5.39   59.37  2.000 -1.000 0 2 0 2  0.943  0.943 287.22    0.00     0.00    0.00   2   90.00     0    0    0   100   0.0  1   1    8    0   0.000    0.000    0.000  1
 33   1    1  1 0 1    32  16    77  256  256     0.00000   1.35018 1.49453e-004   648  1126   1.26   1.16   0.06  -19.29   -5.37   58.37  2.000 -1.000 0 2 0 2  0.943  0.943 287.22    0.00     0.00    0.00   2   90.00     0    0    0   100   0.0  1   1    8    0   0.000    0.000    0.000  1
 34   1    1  1 0 1    33  16    77  256  256     0.00000   1.35018 1.49453e-004   664  1154   1.26   1.16   0.06  -19.31   -5.35   57.37  2.000 -1.000 0 2 0 2  0.943  0.943 287.22    0.00     0.00    0.00   2   90.00     0    0    0   100   0.0  1   1    8    0   0.000    0.000    0.000  1
 35   1    1  1 0 1    34  16    77  256  256     0.00000   1.35018 1.49453e-004   689  1198   1.26   1.16   0.06  -19.33   -5.33   56.37  2.000 -1.000 0 2 0 2  0.943  0.943 287.22    0.00     0.00    0.00   2   90.00     0    0    0   100   0.0  1   1    8    0   0.000    0.000    0.000  1
 36   1    1  1 0 1    35  16    77  256  256     0.00000   1.35018 1.49453e-004   679  1180   1.26   1.16   0.06  -19.35   -5.30   55.38  2.000 -1.000 0 2 0 2  0.943  0.943 287.22    0.00     0.00    0.00   2   90.00     0    0    0   100   0.0  1   1    8    0   0.000    0.000    0.000  1
 37   1    1  1 0 1    36  16    77  256  256     0.00000   1.35018 1.49453e-004   662  1151   1.26   1.16   0.06  -19.37   -5.28   54.38  2.000 -1.000 0 2 0 2  0.943  0.943 287.22    0.00     0.00    0.00   2   90.00     0    0    0   100   0.0  1   1    8    0   0.000    0.000    0.000  1
 38   1    1  1 0 1    37  16    77  256  256     0.00000   1.35018 1.49453e-004   685  1191   1.26   1.16   0.06  -19.39   -5.26   53.38  2.000 -1.000 0 2 0 2  0.943  0.943 287.22    0.00     0.00    0.00   2   90.00     0    0    0   100   0.0  1   1    8    0   0.000    0.000    0.000  1
 39   1    1  1 0 1    38  16    77  256  256     0.00000   1.35018 1.49453e-004   666  1158   1.26   1.16   0.06  -19.41   -5.24   52.38  2.000 -1.000 0 2 0 2  0.943  0.943 287.22    0.00     0.00    0.00   2   90.00     0    0    0   100   0.0  1   1    8    0   0.000    0.000    0.000  1
 40   1    1  1 0 1    39  16    77  256  256     0.00000   1.35018 1.49453e-004   661  1149   1.26   1.16   0.06  -19.43   -5.22   51.38  2.000 -1.000 0 2 0 2  0.943  0.943 287.22    0.00     0.00    0.00   2   90.00     0    0    0   100   0.0  1   1    8    0   0.000    0.000    0.000  1
 41   1    1  1 0 1    40  16    77  256  256     0.00000   1.35018 1.49453e-004   686  1193   1.26   1.16   0.06  -19.45   -5.20   50.38  2.000 -1.000 0 2 0 2  0.943  0.943 287.22    0.00     0.00    0.00   2   90.00     0    0    0   100   0.0  1   1    8    0   0.000    0.000    0.000  1
 42   1    1  1 0 1    41  16    77  256  256     0.00000   1.35018 1.49453e-004   716  1245   1.26   1.16   0.06  -19.47   -5.17   49.38  2.000 -1.000 0 2 0 2  0.943  0.943 287.22    0.00     0.00    0.00   2   90.00     0    0    0   100   0.0  1   1    8    0   0.000    0.000    0.000  1
 43   1    1  1 0 1    42  16    77  256  256     0.00000   1.35018 1.49453e-004   744  1294   1.26   1.16   0.06  -19.49   -5.15   48.38  2.000 -1.000 0 2 0 2  0.943  0.943 287.22    0.00     0.00    0.00   2   90.00     0    0    0   100   0.0  1   1    8    0   0.000    0.000    0.000  1
 44   1    1  1 0 1    43  16    77  256  256     0.00000   1.35018 1.49453e-004   741  1288   1.26   1.16   0.06  -19.51   -5.13   47.38  2.000 -1.000 0 2 0 2  0.943  0.943 287.22    0.00     0.00    0.00   2   90.00     0    0    0   100   0.0  1   1    8    0   0.000    0.000    0.000  1
 45   1    1  1 0 1    44  16    77  256  256     0.00000   1.35018 1.49453e-004   773  1344   1.26   1.16   0.06  -19.53   -5.11   46.38  2.000 -1.000 0 2 0 2  0.943  0.943 287.22    0.00     0.00    0.00   2   90.00     0    0    0   100   0.0  1   1    8    0   0.000    0.000    0.000  1
 46   1    1  1 0 1    45  16    77  256  256     0.00000   1.35018 1.49453e-004   828  1440   1.26   1.16   0.06  -19.55   -5.09   45.38  2.000 -1.000 0 2 0 2  0.943  0.943 287.22    0.00     0.00    0.00   2   90.00     0    0    0   100   0.0  1   1    8    0   0.000    0.000    0.000  1
 47   1    1  1 0 1    46  16    77  256  256     0.00000   1.35018 1.49453e-004   898  1562   1.26   1.16   0.06  -19.57   -5.06   44.38  2.000 -1.000 0 2 0 2  0.943  0.943 287.22    0.00     0.00    0.00   2   90.00     0    0    0   100   0.0  1   1    8    0   0.000    0.000    0.000  1
 48   1    1  1 0 1    47  16    77  256  256     0.00000   1.35018 1.49453e-004   909  1580   1.26   1.16   0.06  -19.59   -5.04   43.38  2.000 -1.000 0 2 0 2  0.943  0.943 287.22    0.00     0.00    0.00   2   90.00     0    0    0   100   0.0  1   1    8    0   0.000    0.000    0.000  1
 49   1    1  1 0 1    48  16    77  256  256     0.00000   1.35018 1.49453e-004   891  1548   1.26   1.16   0.06  -19.61   -5.02   42.38  2.000 -1.000 0 2 0 2  0.943  0.943 287.22    0.00     0.00    0.00   2   90.00     0    0    0   100   0.0  1   1    8    0   0.000    0.000    0.000  1
 50   1    1  1 0 1    49  16    77  256  256     0.00000   1.35018 1.49453e-004   859  1494   1.26   1.16   0.06  -19.63   -5.00   41.38  2.000 -1.000 0 2 0 2  0.943  0.943 287.22    0.00     0.00    0.00   2   90.00     0    0    0   100   0.0  1   1    8    0   0.000    0.000    0.000  1
 51   1    1  1 0 1    50  16    77  256  256     0.00000   1.35018 1.49453e-004   879  1527   1.26   1.16   0.06  -19.65   -4.98   40.38  2.000 -1.000 0 2 0 2  0.943  0.943 287.22    0.00     0.00    0.00   2   90.00     0    0    0   100   0.0  1   1    8    0   0.000    0.000    0.000  1
 52   1    1  1 0 1    51  16    77  256  256     0.00000   1.35018 1.49453e-004   896  1557   1.26   1.16   0.06  -19.67   -4.95   39.38  2.000 -1.000 0 2 0 2  0.943  0.943 287.22    0.00     0.00    0.00   2   90.00     0    0    0   100   0.0  1   1    8    0   0.000    0.000    0.000  1
 53   1    1  1 0 1    52  16    77  256  256     0.00000   1.35018 1.49453e-004   875  1520   1.26   1.16   0.06  -19.69   -4.93   38.38  2.000 -1.000 0 2 0 2  0.943  0.943 287.22    0.00     0.00    0.00   2   90.00     0    0    0   100   0.0  1   1    8    0   0.000    0.000    0.000  1
 54   1    1  1 0 1    53  16    77  256  256     0.00000   1.35018 1.49453e-004   876  1522   1.26   1.16   0.06  -19.71   -4.91   37.38  2.000 -1.000 0 2 0 2  0.943  0.943 287.22    0.00     0.00    0.00   2   90.00     0    0    0   100   0.0  1   1    8    0   0.000    0.000    0.000  1
 55   1    1  1 0 1    54  16    77  256  256     0.00000   1.35018 1.49453e-004   891  1550   1.26   1.16   0.06  -19.73   -4.89   36.38  2.000 -1.000 0 2 0 2  0.943  0.943 287.22    0.00     0.00    0.00   2   90.00     0    0    0   100   0.0  1   1    8    0   0.000    0.000    0.000  1
 56   1    1  1 0 1    55  16    77  256  256     0.00000   1.35018 1.49453e-004   895  1557   1.26   1.16   0.06  -19.75   -4.87   35.38  2.000 -1.000 0 2 0 2  0.943  0.943 287.22    0.00     0.00    0.00   2   90.00     0    0    0   100   0.0  1   1    8    0   0.000    0.000    0.000  1
 57   1    1  1 0 1    56  16    77  256  256     0.00000   1.35018 1.49453e-004   889  1545   1.26   1.16   0.06  -19.77   -4.84   34.38  2.000 -1.000 0 2 0 2  0.943  0.943 287.22    0.00     0.00    0.00   2   90.00     0    0    0   100   0.0  1   1    8    0   0.000    0.000    0.000  1
 58   1    1  1 0 1    57  16    77  256  256     0.00000   1.35018 1.49453e-004   891  1548   1.26   1.16   0.06  -19.79   -4.82   33.39  2.000 -1.000 0 2 0 2  0.943  0.943 287.22    0.00     0.00    0.00   2   90.00     0    0    0   100   0.0  1   1    8    0   0.000    0.000    0.000  1
 59   1    1  1 0 1    58  16    77  256  256     0.00000   1.35018 1.49453e-004   891  1549   1.26   1.16   0.06  -19.81   -4.80   32.39  2.000 -1.000 0 2 0 2  0.943  0.943 287.22    0.00     0.00    0.00   2   90.00     0    0    0   100   0.0  1   1    8    0   0.000    0.000    0.000  1
 60   1    1  1 0 1    59  16    77  256  256     0.00000   1.35018 1.49453e-004   910  1582   1.26   1.16   0.06  -19.83   -4.78   31.39  2.000 -1.000 0 2 0 2  0.943  0.943 287.22    0.00     0.00    0.00   2   90.00     0    0    0   100   0.0  1   1    8    0   0.000    0.000    0.000  1
 61   1    1  1 0 1    60  16    77  256  256     0.00000   1.35018 1.49453e-004   932  1620   1.26   1.16   0.06  -19.85   -4.76   30.39  2.000 -1.000 0 2 0 2  0.943  0.943 287.22    0.00     0.00    0.00   2   90.00     0    0    0   100   0.0  1   1    8    0   0.000    0.000    0.000  1
 62   1    1  1 0 1    61  16    77  256  256     0.00000   1.35018 1.49453e-004   960  1669   1.26   1.16   0.06  -19.87   -4.74   29.39  2.000 -1.000 0 2 0 2  0.943  0.943 287.22    0.00     0.00    0.00   2   90.00     0    0    0   100   0.0  1   1    8    0   0.000    0.000    0.000  1
 63   1    1  1 0 1    62  16    77  256  256     0.00000   1.35018 1.49453e-004   966  1680   1.26   1.16   0.06  -19.89   -4.71   28.39  2.000 -1.000 0 2 0 2  0.943  0.943 287.22    0.00     0.00    0.00   2   90.00     0    0    0   100   0.0  1   1    8    0   0.000    0.000    0.000  1
 64   1    1  1 0 1    63  16    77  256  256     0.00000   1.35018 1.49453e-004   983  1708   1.26   1.16   0.06  -19.91   -4.69   27.39  2.000 -1.000 0 2 0 2  0.943  0.943 287.22    0.00     0.00    0.00   2   90.00     0    0    0   100   0.0  1   1    8    0   0.000    0.000    0.000  1
 65   1    1  1 0 1    64  16    77  256  256     0.00000   1.35018 1.49453e-004   989  1720   1.26   1.16   0.06  -19.93   -4.67   26.39  2.000 -1.000 0 2 0 2  0.943  0.943 287.22    0.00     0.00    0.00   2   90.00     0    0    0   100   0.0  1   1    8    0   0.000    0.000    0.000  1
 66   1    1  1 0 1    65  16    77  256  256     0.00000   1.35018 1.49453e-004   975  1694   1.26   1.16   0.06  -19.96   -4.65   25.39  2.000 -1.000 0 2 0 2  0.943  0.943 287.22    0.00     0.00    0.00   2   90.00     0    0    0   100   0.0  1   1    8    0   0.000    0.000    0.000  1
 67   1    1  1 0 1    66  16    77  256  256     0.00000   1.35018 1.49453e-004   970  1686   1.26   1.16   0.06  -19.98   -4.63   24.39  2.000 -1.000 0 2 0 2  0.943  0.943 287.22    0.00     0.00    0.00   2   90.00     0    0    0   100   0.0  1   1    8    0   0.000    0.000    0.000  1
 68   1    1  1 0 1    67  16    77  256  256     0.00000   1.35018 1.49453e-004   996  1731   1.26   1.16   0.06  -20.00   -4.60   23.39  2.000 -1.000 0 2 0 2  0.943  0.943 287.22    0.00     0.00    0.00   2   90.00     0    0    0   100   0.0  1   1    8    0   0.000    0.000    0.000  1
 69   1    1  1 0 1    68  16    77  256  256     0.00000   1.35018 1.49453e-004   989  1719   1.26   1.16   0.06  -20.02   -4.58   22.39  2.000 -1.000 0 2 0 2  0.943  0.943 287.22    0.00     0.00    0.00   2   90.00     0    0    0   100   0.0  1   1    8    0   0.000    0.000    0.000  1
 70   1    1  1 0 1    69  16    77  256  256     0.00000   1.35018 1.49453e-004   998  1735   1.26   1.16   0.06  -20.04   -4.56   21.39  2.000 -1.000 0 2 0 2  0.943  0.943 287.22    0.00     0.00    0.00   2   90.00     0    0    0   100   0.0  1   1    8    0   0.000    0.000    0.000  1
 71   1    1  1 0 1    70  16    77  256  256     0.00000   1.35018 1.49453e-004  1002  1741   1.26   1.16   0.06  -20.06   -4.54   20.39  2.000 -1.000 0 2 0 2  0.943  0.943 287.22    0.00     0.00    0.00   2   90.00     0    0    0   100   0.0  1   1    8    0   0.000    0.000    0.000  1
 72   1    1  1 0 1    71  16    77  256  256     0.00000   1.35018 1.49453e-004  1001  1740   1.26   1.16   0.06  -20.08   -4.52   19.39  2.000 -1.000 0 2 0 2  0.943  0.943 287.22    0.00     0.00    0.00   2   90.00     0    0    0   100   0.0  1   1    8    0   0.000    0.000    0.000  1
 73   1    1  1 0 1    72  16    77  256  256     0.00000   1.35018 1.49453e-004  1023  1778   1.26   1.16   0.06  -20.10   -4.49   18.39  2.000 -1.000 0 2 0 2  0.943  0.943 287.22    0.00     0.00    0.00   2   90.00     0    0    0   100   0.0  1   1    8    0   0.000    0.000    0.000  1
 74   1    1  1 0 1    73  16    77  256  256     0.00000   1.35018 1.49453e-004  1019  1771   1.26   1.16   0.06  -20.12   -4.47   17.39  2.000 -1.000 0 2 0 2  0.943  0.943 287.22    0.00     0.00    0.00   2   90.00     0    0    0   100   0.0  1   1    8    0   0.000    0.000    0.000  1
 75   1    1  1 0 1    74  16    77  256  256     0.00000   1.35018 1.49453e-004  1033  1795   1.26   1.16   0.06  -20.14   -4.45   16.39  2.000 -1.000 0 2 0 2  0.943  0.943 287.22    0.00     0.00    0.00   2   90.00     0    0    0   100   0.0  1   1    8    0   0.000    0.000    0.000  1
 76   1    1  1 0 1    75  16    77  256  256     0.00000   1.35018 1.49453e-004  1055  1834   1.26   1.16   0.06  -20.16   -4.43   15.39  2.000 -1.000 0 2 0 2  0.943  0.943 287.22    0.00     0.00    0.00   2   90.00     0    0    0   100   0.0  1   1    8    0   0.000    0.000    0.000  1
 77   1    1  1 0 1    76  16    77  256  256     0.00000   1.35018 1.49453e-004  1082  1882   1.26   1.16   0.06  -20.18   -4.41   14.39  2.000 -1.000 0 2 0 2  0.943  0.943 287.22    0.00     0.00    0.00   2   90.00     0    0    0   100   0.0  1   1    8    0   0.000    0.000    0.000  1
 78   1    1  1 0 1    77  16    77  256  256     0.00000   1.35018 1.49453e-004  1089  1893   1.26   1.16   0.06  -20.20   -4.38   13.39  2.000 -1.000 0 2 0 2  0.943  0.943 287.22    0.00     0.00    0.00   2   90.00     0    0    0   100   0.0  1   1    8    0   0.000    0.000    0.000  1
 79   1    1  1 0 1    78  16    77  256  256     0.00000   1.35018 1.49453e-004  1062  1847   1.26   1.16   0.06  -20.22   -4.36   12.39  2.000 -1.000 0 2 0 2  0.943  0.943 287.22    0.00     0.00    0.00   2   90.00     0    0    0   100   0.0  1   1    8    0   0.000    0.000    0.000  1
 80   1    1  1 0 1    79  16    77  256  256     0.00000   1.35018 1.49453e-004  1057  1837   1.26   1.16   0.06  -20.24   -4.34   11.40  2.000 -1.000 0 2 0 2  0.943  0.943 287.22    0.00     0.00    0.00   2   90.00     0    0    0   100   0.0  1   1    8    0   0.000    0.000    0.000  1
 81   1    1  1 0 1    80  16    77  256  256     0.00000   1.35018 1.49453e-004  1069  1859   1.26   1.16   0.06  -20.26   -4.32   10.40  2.000 -1.000 0 2 0 2  0.943  0.943 287.22    0.00     0.00    0.00   2   90.00     0    0    0   100   0.0  1   1    8    0   0.000    0.000    0.000  1
 82   1    1  1 0 1    81  16    77  256  256     0.00000   1.35018 1.49453e-004  1074  1868   1.26   1.16   0.06  -20.28   -4.30    9.40  2.000 -1.000 0 2 0 2  0.943  0.943 287.22    0.00     0.00    0.00   2   90.00     0    0    0   100   0.0  1   1    8    0   0.000    0.000    0.000  1
 83   1    1  1 0 1    82  16    77  256  256     0.00000   1.35018 1.49453e-004  1071  1862   1.26   1.16   0.06  -20.30   -4.28    8.40  2.000 -1.000 0 2 0 2  0.943  0.943 287.22    0.00     0.00    0.00   2   90.00     0    0    0   100   0.0  1   1    8    0   0.000    0.000    0.000  1
 84   1    1  1 0 1    83  16    77  256  256     0.00000   1.35018 1.49453e-004  1089  1892   1.26   1.16   0.06  -20.32   -4.25    7.40  2.000 -1.000 0 2 0 2  0.943  0.943 287.22    0.00     0.00    0.00   2   90.00     0    0    0   100   0.0  1   1    8    0   0.000    0.000    0.000  1
