# === DATA DESCRIPTION FILE ======================================================
#
# CAUTION - Investigational device.
# Limited by Federal Law to investigational use.
#
#
# CLINICAL TRYOUT             Research image export tool     V4.2
#
# === GENERAL INFORMATION ========================================================
#
.    Protocol name                      :   WIP 3D FLAIR Sag UMich SENSE
.    Series Type                        :   Image   MRSERIES
.    Acquisition nr                     :   4
.    Reconstruction nr                  :   1
.    Scan Duration [sec]                :   528
.    Max. number of cardiac phases      :   1
.    Max. number of echoes              :   1
.    Max. number of slices/locations    :   327
.    Max. number of dynamics            :   1
.    Max. number of mixes               :   1
.    Patient position                   :   Head First Supine
.    Preparation direction              :   Anterior-Posterior
.    Technique                          :   TIR
.    Scan resolution  (x, y)            :   216  220
.    Scan mode                          :   3D
.    Repetition time [ms]               :   8000.000  
.    FOV (ap,fh,rl) [mm]                :   240.000  200.000  179.850
.    Water Fat shift [pixels]           :   0.858
.    Angulation midslice(ap,fh,rl)[degr]:   -2.883  0.481  -0.177
.    Off Centre midslice(ap,fh,rl) [mm] :   -24.576  -17.964  -2.166
.    Flow compensation <0=no 1=yes> ?   :   1
.    Presaturation     <0=no 1=yes> ?   :   0
.    Phase encoding velocity [cm/sec]   :   0.000000  0.000000  0.000000
.    MTC               <0=no 1=yes> ?   :   0
.    SPIR              <0=no 1=yes> ?   :   1
.    EPI factor        <0,1=no EPI>     :   1
.    Dynamic scan      <0=no 1=yes> ?   :   0
.    Diffusion         <0=no 1=yes> ?   :   0
.    Diffusion echo time [ms]           :   0.0000
.    Max. number of diffusion values    :   1
.    Max. number of gradient orients    :   1
.    Number of label types   <0=no ASL> :   0
#
# === PIXEL VALUES =============================================================
#  PV = pixel value in REC file, FP = floating point value, DV = displayed value on console
#  RS = rescale slope,           RI = rescale intercept,    SS = scale slope
#  DV = PV * RS + RI             FP = DV / (RS * SS)
#
# === IMAGE INFORMATION DEFINITION =============================================
#  The rest of this file contains ONE line per image, this line contains the following information:
#
#  slice number                             (integer)
#  echo number                              (integer)
#  dynamic scan number                      (integer)
#  cardiac phase number                     (integer)
#  image_type_mr                            (integer)
#  scanning sequence                        (integer)
#  index in REC file (in images)            (integer)
#  image pixel size (in bits)               (integer)
#  scan percentage                          (integer)
#  recon resolution (x y)                   (2*integer)
#  rescale intercept                        (float)
#  rescale slope                            (float)
#  scale slope                              (float)
#  window center                            (integer)
#  window width                             (integer)
#  image angulation (ap,fh,rl in degrees )  (3*float)
#  image offcentre (ap,fh,rl in mm )        (3*float)
#  slice thickness (in mm )                 (float)
#  slice gap (in mm )                       (float)
#  image_display_orientation                (integer)
#  slice orientation ( TRA/SAG/COR )        (integer)
#  fmri_status_indication                   (integer)
#  image_type_ed_es  (end diast/end syst)   (integer)
#  pixel spacing (x,y) (in mm)              (2*float)
#  echo_time                                (float)
#  dyn_scan_begin_time                      (float)
#  trigger_time                             (float)
#  diffusion_b_factor                       (float)
#  number of averages                       (integer)
#  image_flip_angle (in degrees)            (float)
#  cardiac frequency   (bpm)                (integer)
#  minimum RR-interval (in ms)              (integer)
#  maximum RR-interval (in ms)              (integer)
#  TURBO factor  <0=no turbo>               (integer)
#  Inversion delay (in ms)                  (float)
#  diffusion b value number    (imagekey!)  (integer)
#  gradient orientation number (imagekey!)  (integer)
#  contrast type                            (string)
#  diffusion anisotropy type                (string)
#  diffusion (ap, fh, rl)                   (3*float)
#  label type (ASL)            (imagekey!)  (integer)
#
# === IMAGE INFORMATION ==========================================================
#  sl ec  dyn ph ty    idx pix scan% rec size                (re)scale              window        angulation              offcentre        thick   gap   info      spacing     echo     dtime   ttime    diff  avg  flip    freq   RR-int  turbo delay b grad cont anis         diffusion       L.ty

  1   1    1  1 0 0     0  16    79  576  576     0.00000   5.90940 1.24659e-003    22    39  -2.88   0.48  -0.18  -23.81  -13.46   87.37  1.100 -0.550 0 2 0 2  0.417  0.417 330.91    0.00     0.00    0.00   1   90.00     0    0    0   110 2400.0  1   1    8    0   0.000    0.000    0.000  1
  2   1    1  1 0 0     1  16    79  576  576     0.00000   5.90940 1.24659e-003    31    53  -2.88   0.48  -0.18  -23.81  -13.48   86.82  1.100 -0.550 0 2 0 2  0.417  0.417 330.91    0.00     0.00    0.00   1   90.00     0    0    0   110 2400.0  1   1    8    0   0.000    0.000    0.000  1
  3   1    1  1 0 0     2  16    79  576  576     0.00000   5.90940 1.24659e-003    34    59  -2.88   0.48  -0.18  -23.82  -13.51   86.27  1.100 -0.550 0 2 0 2  0.417  0.417 330.91    0.00     0.00    0.00   1   90.00     0    0    0   110 2400.0  1   1    8    0   0.000    0.000    0.000  1
  4   1    1  1 0 0     3  16    79  576  576     0.00000   5.90940 1.24659e-003    37    65  -2.88   0.48  -0.18  -23.82  -13.54   85.72  1.100 -0.550 0 2 0 2  0.417  0.417 330.91    0.00     0.00    0.00   1   90.00     0    0    0   110 2400.0  1   1    8    0   0.000    0.000    0.000  1
  5   1    1  1 0 0     4  16    79  576  576     0.00000   5.90940 1.24659e-003    44    77  -2.88   0.48  -0.18  -23.83  -13.57   85.17  1.100 -0.550 0 2 0 2  0.417  0.417 330.91    0.00     0.00    0.00   1   90.00     0    0    0   110 2400.0  1   1    8    0   0.000    0.000    0.000  1
  6   1    1  1 0 0     5  16    79  576  576     0.00000   5.90940 1.24659e-003    97   168  -2.88   0.48  -0.18  -23.83  -13.60   84.62  1.100 -0.550 0 2 0 2  0.417  0.417 330.91    0.00     0.00    0.00   1   90.00     0    0    0   110 2400.0  1   1    8    0   0.000    0.000    0.000  1
  7   1    1  1 0 0     6  16    79  576  576     0.00000   5.90940 1.24659e-003   151   263  -2.88   0.48  -0.18  -23.84  -13.62   84.07  1.100 -0.550 0 2 0 2  0.417  0.417 330.91    0.00     0.00    0.00   1   90.00     0    0    0   110 2400.0  1   1    8    0   0.000    0.000    0.000  1
  8   1    1  1 0 0     7  16    79  576  576     0.00000   5.90940 1.24659e-003   171   298  -2.88   0.48  -0.18  -23.84  -13.65   83.52  1.100 -0.550 0 2 0 2  0.417  0.417 330.91    0.00     0.00    0.00   1   90.00     0    0    0   110 2400.0  1   1    8    0   0.000    0.000    0.000  1
  9   1    1  1 0 0     8  16    79  576  576     0.00000   5.90940 1.24659e-003   186   324  -2.88   0.48  -0.18  -23.85  -13.68   82.97  1.100 -0.550 0 2 0 2  0.417  0.417 330.91    0.00     0.00    0.00   1   90.00     0    0    0   110 2400.0  1   1    8    0   0.000    0.000    0.000  1
 10   1    1  1 0 0     9  16    79  576  576     0.00000   5.90940 1.24659e-003   194   337  -2.88   0.48  -0.18  -23.85  -13.71   82.42  1.100 -0.550 0 2 0 2  0.417  0.417 330.91    0.00     0.00    0.00   1   90.00     0    0    0   110 2400.0  1   1    8    0   0.000    0.000    0.000  1
 11   1    1  1 0 0    10  16    79  576  576     0.00000   5.90940 1.24659e-003   200   349  -2.88   0.48  -0.18  -23.86  -13.73   81.87  1.100 -0.550 0 2 0 2  0.417  0.417 330.91    0.00     0.00    0.00   1   90.00     0    0    0   110 2400.0  1   1    8    0   0.000    0.000    0.000  1
 12   1    1  1 0 0    11  16    79  576  576     0.00000   5.90940 1.24659e-003   209   363  -2.88   0.48  -0.18  -23.86  -13.76   81.33  1.100 -0.550 0 2 0 2  0.417  0.417 330.91    0.00     0.00    0.00   1   90.00     0    0    0   110 2400.0  1   1    8    0   0.000    0.000    0.000  1
 13   1    1  1 0 0    12  16    79  576  576     0.00000   5.90940 1.24659e-003   222   386  -2.88   0.48  -0.18  -23.87  -13.79   80.78  1.100 -0.550 0 2 0 2  0.417  0.417 330.91    0.00     0.00    0.00   1   90.00     0    0    0   110 2400.0  1   1    8    0   0.000    0.000    0.000  1
 14   1    1  1 0 0    13  16    79  576  576     0.00000   5.90940 1.24659e-003   237   413  -2.88   0.48  -0.18  -23.87  -13.82   80.23  1.100 -0.550 0 2 0 2  0.417  0.417 330.91    0.00     0.00    0.00   1   90.00     0    0    0   110 2400.0  1   1    8    0   0.000    0.000    0.000  1
 15   1    1  1 0 0    14  16    79  576  576     0.00000   5.90940 1.24659e-003   249   433  -2.88   0.48  -0.18  -23.88  -13.84   79.68  1.100 -0.550 0 2 0 2  0.417  0.417 330.91    0.00     0.00    0.00   1   90.00     0    0    0   110 2400.0  1   1    8    0   0.000    0.000    0.000  1
 16   1    1  1 0 0    15  16    79  576  576     0.00000   5.90940 1.24659e-003   261   454  -2.88   0.48  -0.18  -23.88  -13.87   79.13  1.100 -0.550 0 2 0 2  0.417  0.417 330.91    0.00     0.00    0.00   1   90.00     0    0    0   110 2400.0  1   1    8    0   0.000    0.000    0.000  1
 17   1    1  1 0 0    16  16    79  576  576     0.00000   5.90940 1.24659e-003   273   475  -2.88   0.48  -0.18  -23.88  -13.90   78.58  1.100 -0.550 0 2 0 2  0.417  0.417 330.91    0.00     0.00    0.00   1   90.00     0    0    0   110 2400.0  1   1    8    0   0.000    0.000    0.000  1
 18   1    1  1 0 0    17  16    79  576  576     0.00000   5.90940 1.24659e-003   284   493  -2.88   0.48  -0.18  -23.89  -13.93   78.03  1.100 -0.550 0 2 0 2  0.417  0.417 330.91    0.00     0.00    0.00   1   90.00     0    0    0   110 2400.0  1   1    8    0   0.000    0.000    0.000  1
 19   1    1  1 0 0    18  16    79  576  576     0.00000   5.90940 1.24659e-003   283   492  -2.88   0.48  -0.18  -23.89  -13.95   77.48  1.100 -0.550 0 2 0 2  0.417  0.417 330.91    0.00     0.00    0.00   1   90.00     0    0    0   110 2400.0  1   1    8    0   0.000    0.000    0.000  1
 20   1    1  1 0 0    19  16    79  576  576     0.00000   5.90940 1.24659e-003   294   511  -2.88   0.48  -0.18  -23.90  -13.98   76.93  1.100 -0.550 0 2 0 2  0.417  0.417 330.91    0.00     0.00    0.00   1   90.00     0    0    0   110 2400.0  1   1    8    0   0.000    0.000    0.000  1
 21   1    1  1 0 0    20  16    79  576  576     0.00000   5.90940 1.24659e-003   308   535  -2.88   0.48  -0.18  -23.90  -14.01   76.38  1.100 -0.550 0 2 0 2  0.417  0.417 330.91    0.00     0.00    0.00   1   90.00     0    0    0   110 2400.0  1   1    8    0   0.000    0.000    0.000  1
 22   1    1  1 0 0    21  16    79  576  576     0.00000   5.90940 1.24659e-003   319   555  -2.88   0.48  -0.18  -23.91  -14.04   75.83  1.100 -0.550 0 2 0 2  0.417  0.417 330.91    0.00     0.00    0.00   1   90.00     0    0    0   110 2400.0  1   1    8    0   0.000    0.000    0.000  1
 23   1    1  1 0 0    22  16    79  576  576     0.00000   5.90940 1.24659e-003   329   572  -2.88   0.48  -0.18  -23.91  -14.07   75.28  1.100 -0.550 0 2 0 2  0.417  0.417 330.91    0.00     0.00    0.00   1   90.00     0    0    0   110 2400.0  1   1    8    0   0.000    0.000    0.000  1
 24   1    1  1 0 0    23  16    79  576  576     0.00000   5.90940 1.24659e-003   334   581  -2.88   0.48  -0.18  -23.92  -14.09   74.73  1.100 -0.550 0 2 0 2  0.417  0.417 330.91    0.00     0.00    0.00   1   90.00     0    0    0   110 2400.0  1   1    8    0   0.000    0.000    0.000  1
 25   1    1  1 0 0    24  16    79  576  576     0.00000   5.90940 1.24659e-003   331   575  -2.88   0.48  -0.18  -23.92  -14.12   74.18  1.100 -0.550 0 2 0 2  0.417  0.417 330.91    0.00     0.00    0.00   1   90.00     0    0    0   110 2400.0  1   1    8    0   0.000    0.000    0.000  1
 26   1    1  1 0 0    25  16    79  576  576     0.00000   5.90940 1.24659e-003   330   574  -2.88   0.48  -0.18  -23.93  -14.15   73.64  1.100 -0.550 0 2 0 2  0.417  0.417 330.91    0.00     0.00    0.00   1   90.00     0    0    0   110 2400.0  1   1    8    0   0.000    0.000    0.000  1
 27   1    1  1 0 0    26  16    79  576  576     0.00000   5.90940 1.24659e-003   333   578  -2.88   0.48  -0.18  -23.93  -14.18   73.09  1.100 -0.550 0 2 0 2  0.417  0.417 330.91    0.00     0.00    0.00   1   90.00     0    0    0   110 2400.0  1   1    8    0   0.000    0.000    0.000  1
 28   1    1  1 0 0    27  16    79  576  576     0.00000   5.90940 1.24659e-003   359   625  -2.88   0.48  -0.18  -23.94  -14.20   72.54  1.100 -0.550 0 2 0 2  0.417  0.417 330.91    0.00     0.00    0.00   1   90.00     0    0    0   110 2400.0  1   1    8    0   0.000    0.000    0.000  1
 29   1    1  1 0 0    28  16    79  576  576     0.00000   5.90940 1.24659e-003   398   691  -2.88   0.48  -0.18  -23.94  -14.23   71.99  1.100 -0.550 0 2 0 2  0.417  0.417 330.91    0.00     0.00    0.00   1   90.00     0    0    0   110 2400.0  1   1    8    0   0.000    0.000    0.000  1
 30   1    1  1 0 0    29  16    79  576  576     0.00000   5.90940 1.24659e-003   427   742  -2.88   0.48  -0.18  -23.95  -14.26   71.44  1.100 -0.550 0 2 0 2  0.417  0.417 330.91    0.00     0.00    0.00   1   90.00     0    0    0   110 2400.0  1   1    8    0   0.000    0.000    0.000  1
 31   1    1  1 0 0    30  16    79  576  576     0.00000   5.90940 1.24659e-003   430   747  -2.88   0.48  -0.18  -23.95  -14.29   70.89  1.100 -0.550 0 2 0 2  0.417  0.417 330.91    0.00     0.00    0.00   1   90.00     0    0    0   110 2400.0  1   1    8    0   0.000    0.000    0.000  1
 32   1    1  1 0 0    31  16    79  576  576     0.00000   5.90940 1.24659e-003   437   760  -2.88   0.48  -0.18  -23.96  -14.31   70.34  1.100 -0.550 0 2 0 2  0.417  0.417 330.91    0.00     0.00    0.00   1   90.00     0    0    0   110 2400.0  1   1    8    0   0.000    0.000    0.000  1
 33   1    1  1 0 0    32  16    79  576  576     0.00000   5.90940 1.24659e-003   451   784  -2.88   0.48  -0.18  -23.96  -14.34   69.79  1.100 -0.550 0 2 0 2  0.417  0.417 330.91    0.00     0.00    0.00   1   90.00     0    0    0   110 2400.0  1   1    8    0   0.000    0.000    0.000  1
 34   1    1  1 0 0    33  16    79  576  576     0.00000   5.90940 1.24659e-003   469   815  -2.88   0.48  -0.18  -23.96  -14.37   69.24  1.100 -0.550 0 2 0 2  0.417  0.417 330.91    0.00     0.00    0.00   1   90.00     0    0    0   110 2400.0  1   1    8    0   0.000    0.000    0.000  1
 35   1    1  1 0 0    34  16    79  576  576     0.00000   5.90940 1.24659e-003   482   838  -2.88   0.48  -0.18  -23.97  -14.40   68.69  1.100 -0.550 0 2 0 2  0.417  0.417 330.91    0.00     0.00    0.00   1   90.00     0    0    0   110 2400.0  1   1    8    0   0.000    0.000    0.000  1
 36   1    1  1 0 0    35  16    79  576  576     0.00000   5.90940 1.24659e-003   482   838  -2.88   0.48  -0.18  -23.97  -14.42   68.14  1.100 -0.550 0 2 0 2  0.417  0.417 330.91    0.00     0.00    0.00   1   90.00     0    0    0   110 2400.0  1   1    8    0   0.000    0.000    0.000  1
 37   1    1  1 0 0    36  16    79  576  576     0.00000   5.90940 1.24659e-003   507   881  -2.88   0.48  -0.18  -23.98  -14.45   67.59  1.100 -0.550 0 2 0 2  0.417  0.417 330.91    0.00     0.00    0.00   1   90.00     0    0    0   110 2400.0  1   1    8    0   0.000    0.000    0.000  1
 38   1    1  1 0 0    37  16    79  576  576     0.00000   5.90940 1.24659e-003   516   897  -2.88   0.48  -0.18  -23.98  -14.48   67.04  1.100 -0.550 0 2 0 2  0.417  0.417 330.91    0.00     0.00    0.00   1   90.00     0    0    0   110 2400.0  1   1    8    0   0.000    0.000    0.000  1
 39   1    1  1 0 0    38  16    79  576  576     0.00000   5.90940 1.24659e-003   559   971  -2.88   0.48  -0.18  -23.99  -14.51   66.49  1.100 -0.550 0 2 0 2  0.417  0.417 330.91    0.00     0.00    0.00   1   90.00     0    0    0   110 2400.0  1   1    8    0   0.000    0.000    0.000  1
 40   1    1  1 0 0    39  16    79  576  576     0.00000   5.90940 1.24659e-003   587  1020  -2.88   0.48  -0.18  -23.99  -14.54   65.95  1.100 -0.550 0 2 0 2  0.417  0.417 330.91    0.00     0.00    0.00   1   90.00     0    0    0   110 2400.0  1   1    8    0   0.000    0.000    0.000  1
 41   1    1  1 0 0    40  16    79  576  576     0.00000   5.90940 1.24659e-003   609  1059  -2.88   0.48  -0.18  -24.00  -14.56   65.40  1.100 -0.550 0 2 0 2  0.417  0.417 330.91    0.00     0.00    0.00   1   90.00     0    0    0   110 2400.0  1   1    8    0   0.000    0.000    0.000  1
 42   1    1  1 0 0    41  16    79  576  576     0.00000   5.90940 1.24659e-003   605  1052  -2.88   0.48  -0.18  -24.00  -14.59   64.85  1.100 -0.550 0 2 0 2  0.417  0.417 330.91    0.00     0.00    0.00   1   90.00     0    0    0   110 2400.0  1   1    8    0   0.000    0.000    0.000  1
 43   1    1  1 0 0    42  16    79  576  576     0.00000   5.90940 1.24659e-003   626  1089  -2.88   0.48  -0.18  -24.01  -14.62   64.30  1.100 -0.550 0 2 0 2  0.417  0.417 330.91    0.00     0.00    0.00   1   90.00     0    0    0   110 2400.0  1   1    8    0   0.000    0.000    0.000  1
 44   1    1  1 0 0    43  16    79  576  576     0.00000   5.90940 1.24659e-003   654  1136  -2.88   0.48  -0.18  -24.01  -14.65   63.75  1.100 -0.550 0 2 0 2  0.417  0.417 330.91    0.00     0.00    0.00   1   90.00     0    0    0   110 2400.0  1   1    8    0   0.000    0.000    0.000  1
 45   1    1  1 0 0    44  16    79  576  576     0.00000   5.90940 1.24659e-003   695  1209  -2.88   0.48  -0.18  -24.02  -14.67   63.20  1.100 -0.550 0 2 0 2  0.417  0.417 330.91    0.00     0.00    0.00   1   90.00     0    0    0   110 2400.0  1   1    8    0   0.000    0.000    0.000  1
 46   1    1  1 0 0    45  16    79  576  576     0.00000   5.90940 1.24659e-003   753  1309  -2.88   0.48  -0.18  -24.02  -14.70   62.65  1.100 -0.550 0 2 0 2  0.417  0.417 330.91    0.00     0.00    0.00   1   90.00     0    0    0   110 2400.0  1   1    8    0   0.000    0.000    0.000  1
 47   1    1  1 0 0    46  16    79  576  576     0.00000   5.90940 1.24659e-003   813  1413  -2.88   0.48  -0.18  -24.03  -14.73   62.10  1.100 -0.550 0 2 0 2  0.417  0.417 330.91    0.00     0.00    0.00   1   90.00     0    0    0   110 2400.0  1   1    8    0   0.000    0.000    0.000  1
 48   1    1  1 0 0    47  16    79  576  576     0.00000   5.90940 1.24659e-003   872  1515  -2.88   0.48  -0.18  -24.03  -14.76   61.55  1.100 -0.550 0 2 0 2  0.417  0.417 330.91    0.00     0.00    0.00   1   90.00     0    0    0   110 2400.0  1   1    8    0   0.000    0.000    0.000  1
 49   1    1  1 0 0    48  16    79  576  576     0.00000   5.90940 1.24659e-003   922  1603  -2.88   0.48  -0.18  -24.04  -14.78   61.00  1.100 -0.550 0 2 0 2  0.417  0.417 330.91    0.00     0.00    0.00   1   90.00     0    0    0   110 2400.0  1   1    8    0   0.000    0.000    0.000  1
 50   1    1  1 0 0    49  16    79  576  576     0.00000   5.90940 1.24659e-003   954  1658  -2.88   0.48  -0.18  -24.04  -14.81   60.45  1.100 -0.550 0 2 0 2  0.417  0.417 330.91    0.00     0.00    0.00   1   90.00     0    0    0   110 2400.0  1   1    8    0   0.000    0.000    0.000  1
 51   1    1  1 0 0    50  16    79  576  576     0.00000   5.90940 1.24659e-003   973  1691  -2.88   0.48  -0.18  -24.04  -14.84   59.90  1.100 -0.550 0 2 0 2  0.417  0.417 330.91    0.00     0.00    0.00   1   90.00     0    0    0   110 2400.0  1   1    8    0   0.000    0.000    0.000  1
 52   1    1  1 0 0    51  16    79  576  576     0.00000   5.90940 1.24659e-003   997  1732  -2.88   0.48  -0.18  -24.05  -14.87   59.35  1.100 -0.550 0 2 0 2  0.417  0.417 330.91    0.00     0.00    0.00   1   90.00     0    0    0   110 2400.0  1   1    8    0   0.000    0.000    0.000  1
 53   1    1  1 0 0    52  16    79  576  576     0.00000   5.90940 1.24659e-003  1027  1786  -2.88   0.48  -0.18  -24.05  -14.89   58.80  1.100 -0.550 0 2 0 2  0.417  0.417 330.91    0.00     0.00    0.00   1   90.00     0    0    0   110 2400.0  1   1    8    0   0.000    0.000    0.000  1
 54   1    1  1 0 0    53  16    79  576  576     0.00000   5.90940 1.24659e-003  1044  1815  -2.88   0.48  -0.18  -24.06  -14.92   58.26  1.100 -0.550 0 2 0 2  0.417  0.417 330.91    0.00     0.00    0.00   1   90.00     0    0    0   110 2400.0  1   1    8    0   0.000    0.000    0.000  1
 55   1    1  1 0 0    54  16    79  576  576     0.00000   5.90940 1.24659e-003  1076  1870  -2.88   0.48  -0.18  -24.06  -14.95   57.71  1.100 -0.550 0 2 0 2  0.417  0.417 330.91    0.00     0.00    0.00   1   90.00     0    0    0   110 2400.0  1   1    8    0   0.000    0.000    0.000  1
 56   1    1  1 0 0    55  16    79  576  576     0.00000   5.90940 1.24659e-003  1087  1890  -2.88   0.48  -0.18  -24.07  -14.98   57.16  1.100 -0.550 0 2 0 2  0.417  0.417 330.91    0.00     0.00    0.00   1   90.00     0    0    0   110 2400.0  1   1    8    0   0.000    0.000    0.000  1
 57   1    1  1 0 0    56  16    79  576  576     0.00000   5.90940 1.24659e-003  1090  1895  -2.88   0.48  -0.18  -24.07  -15.01   56.61  1.100 -0.550 0 2 0 2  0.417  0.417 330.91    0.00     0.00    0.00   1   90.00     0    0    0   110 2400.0  1   1    8    0   0.000    0.000    0.000  1
 58   1    1  1 0 0    57  16    79  576  576     0.00000   5.90940 1.24659e-003  1097  1907  -2.88   0.48  -0.18  -24.08  -15.03   56.06  1.100 -0.550 0 2 0 2  0.417  0.417 330.91    0.00     0.00    0.00   1   90.00     0    0    0   110 2400.0  1   1    8    0   0.000    0.000    0.000  1
 59   1    1  1 0 0    58  16    79  576  576     0.00000   5.90940 1.24659e-003  1115  1938  -2.88   0.48  -0.18  -24.08  -15.06   55.51  1.100 -0.550 0 2 0 2  0.417  0.417 330.91    0.00     0.00    0.00   1   90.00     0    0    0   110 2400.0  1   1    8    0   0.000    0.000    0.000  1
 60   1    1  1 0 0    59  16    79  576  576     0.00000   5.90940 1.24659e-003  1119  1945  -2.88   0.48  -0.18  -24.09  -15.09   54.96  1.100 -0.550 0 2 0 2  0.417  0.417 330.91    0.00     0.00    0.00   1   90.00     0    0    0   110 2400.0  1   1    8    0   0.000    0.000    0.000  1
 61   1    1  1 0 0    60  16    79  576  576     0.00000   5.90940 1.24659e-003  1129  1963  -2.88   0.48  -0.18  -24.09  -15.12   54.41  1.100 -0.550 0 2 0 2  0.417  0.417 330.91    0.00     0.00    0.00   1   90.00     0    0    0   110 2400.0  1   1    8    0   0.000    0.000    0.000  1
 62   1    1  1 0 0    61  16    79  576  576     0.00000   5.90940 1.24659e-003  1144  1989  -2.88   0.48  -0.18  -24.10  -15.14   53.86  1.100 -0.550 0 2 0 2  0.417  0.417 330.91    0.00     0.00    0.00   1   90.00     0    0    0   110 2400.0  1   1    8    0   0.000    0.000    0.000  1
 63   1    1  1 0 0    62  16    79  576  576     0.00000   5.90940 1.24659e-003  1150  1999  -2.88   0.48  -0.18  -24.10  -15.17   53.31  1.100 -0.550 0 2 0 2  0.417  0.417 330.91    0.00     0.00    0.00   1   90.00     0    0    0   110 2400.0  1   1    8    0   0.000    0.000    0.000  1
 64   1    1  1 0 0    63  16    79  576  576     0.00000   5.90940 1.24659e-003  1154  2006  -2.88   0.48  -0.18  -24.11  -15.20   52.76  1.100 -0.550 0 2 0 2  0.417  0.417 330.91    0.00     0.00    0.00   1   90.00     0    0    0   110 2400.0  1   1    8    0   0.000    0.000    0.000  1
 65   1    1  1 0 0    64  16    79  576  576     0.00000   5.90940 1.24659e-003  1154  2007  -2.88   0.48  -0.18  -24.11  -15.23   52.21  1.100 -0.550 0 2 0 2  0.417  0.417 330.91    0.00     0.00    0.00   1   90.00     0    0    0   110 2400.0  1   1    8    0   0.000    0.000    0.000  1
 66   1    1  1 0 0    65  16    79  576  576     0.00000   5.90940 1.24659e-003  1155  2008  -2.88   0.48  -0.18  -24.12  -15.25   51.66  1.100 -0.550 0 2 0 2  0.417  0.417 330.91    0.00     0.00    0.00   1   90.00     0    0    0   110 2400.0  1   1    8    0   0.000    0.000    0.000  1
 67   1    1  1 0 0    66  16    79  576  576     0.00000   5.90940 1.24659e-003  1156  2009  -2.88   0.48  -0.18  -24.12  -15.28   51.11  1.100 -0.550 0 2 0 2  0.417  0.417 330.91    0.00     0.00    0.00   1   90.00     0    0    0   110 2400.0  1   1    8    0   0.000    0.000    0.000  1
 68   1    1  1 0 0    67  16    79  576  576     0.00000   5.90940 1.24659e-003  1163  2022  -2.88   0.48  -0.18  -24.12  -15.31   50.57  1.100 -0.550 0 2 0 2  0.417  0.417 330.91    0.00     0.00    0.00   1   90.00     0    0    0   110 2400.0  1   1    8    0   0.000    0.000    0.000  1
 69   1    1  1 0 0    68  16    79  576  576     0.00000   5.90940 1.24659e-003  1169  2033  -2.88   0.48  -0.18  -24.13  -15.34   50.02  1.100 -0.550 0 2 0 2  0.417  0.417 330.91    0.00     0.00    0.00   1   90.00     0    0    0   110 2400.0  1   1    8    0   0.000    0.000    0.000  1
 70   1    1  1 0 0    69  16    79  576  576     0.00000   5.90940 1.24659e-003  1174  2041  -2.88   0.48  -0.18  -24.13  -15.36   49.47  1.100 -0.550 0 2 0 2  0.417  0.417 330.91    0.00     0.00    0.00   1   90.00     0    0    0   110 2400.0  1   1    8    0   0.000    0.000    0.000  1
 71   1    1  1 0 0    70  16    79  576  576     0.00000   5.90940 1.24659e-003  1172  2037  -2.88   0.48  -0.18  -24.14  -15.39   48.92  1.100 -0.550 0 2 0 2  0.417  0.417 330.91    0.00     0.00    0.00   1   90.00     0    0    0   110 2400.0  1   1    8    0   0.000    0.000    0.000  1
 72   1    1  1 0 0    71  16    79  576  576     0.00000   5.90940 1.24659e-003  1192  2071  -2.88   0.48  -0.18  -24.14  -15.42   48.37  1.100 -0.550 0 2 0 2  0.417  0.417 330.91    0.00     0.00    0.00   1   90.00     0    0    0   110 2400.0  1   1    8    0   0.000    0.000    0.000  1
 73   1    1  1 0 0    72  16    79  576  576     0.00000   5.90940 1.24659e-003  1216  2115  -2.88   0.48  -0.18  -24.15  -15.45   47.82  1.100 -0.550 0 2 0 2  0.417  0.417 330.91    0.00     0.00    0.00   1   90.00     0    0    0   110 2400.0  1   1    8    0   0.000    0.000    0.000  1
 74   1    1  1 0 0    73  16    79  576  576     0.00000   5.90940 1.24659e-003  1222  2125  -2.88   0.48  -0.18  -24.15  -15.48   47.27  1.100 -0.550 0 2 0 2  0.417  0.417 330.91    0.00     0.00    0.00   1   90.00     0    0    0   110 2400.0  1   1    8    0   0.000    0.000    0.000  1
 75   1    1  1 0 0    74  16    79  576  576     0.00000   5.90940 1.24659e-003  1217  2116  -2.88   0.48  -0.18  -24.16  -15.50   46.72  1.100 -0.550 0 2 0 2  0.417  0.417 330.91    0.00     0.00    0.00   1   90.00     0    0    0   110 2400.0  1   1    8    0   0.000    0.000    0.000  1
 76   1    1  1 0 0    75  16    79  576  576     0.00000   5.90940 1.24659e-003  1218  2117  -2.88   0.48  -0.18  -24.16  -15.53   46.17  1.100 -0.550 0 2 0 2  0.417  0.417 330.91    0.00     0.00    0.00   1   90.00     0    0    0   110 2400.0  1   1    8    0   0.000    0.000    0.000  1
 77   1    1  1 0 0    76  16    79  576  576     0.00000   5.90940 1.24659e-003  1211  2104  -2.88   0.48  -0.18  -24.17  -15.56   45.62  1.100 -0.550 0 2 0 2  0.417  0.417 330.91    0.00     0.00    0.00   1   90.00     0    0    0   110 2400.0  1   1    8    0   0.000    0.000    0.000  1
 78   1    1  1 0 0    77  16    79  576  576     0.00000   5.90940 1.24659e-003  1209  2101  -2.88   0.48  -0.18  -24.17  -15.59   45.07  1.100 -0.550 0 2 0 2  0.417  0.417 330.91    0.00     0.00    0.00   1   90.00     0    0    0   110 2400.0  1   1    8    0   0.000    0.000    0.000  1
 79   1    1  1 0 0    78  16    79  576  576     0.00000   5.90940 1.24659e-003  1228  2134  -2.88   0.48  -0.18  -24.18  -15.61   44.52  1.100 -0.550 0 2 0 2  0.417  0.417 330.91    0.00     0.00    0.00   1   90.00     0    0    0   110 2400.0  1   1    8    0   0.000    0.000    0.000  1
 80   1    1  1 0 0    79  16    79  576  576     0.00000   5.90940 1.24659e-003  1243  2161  -2.88   0.48  -0.18  -24.18  -15.64   43.97  1.100 -0.550 0 2 0 2  0.417  0.417 330.91    0.00     0.00    0.00   1   90.00     0    0    0   110 2400.0  1   1    8    0   0.000    0.000    0.000  1
 81   1    1  1 0 0    80  16    79  576  576     0.00000   5.90940 1.24659e-003  1252  2177  -2.88   0.48  -0.18  -24.19  -15.67   43.42  1.100 -0.550 0 2 0 2  0.417  0.417 330.91    0.00     0.00    0.00   1   90.00     0    0    0   110 2400.0  1   1    8    0   0.000    0.000    0.000  1
 82   1    1  1 0 0    81  16    79  576  576     0.00000   5.90940 1.24659e-003  1243  2161  -2.88   0.48  -0.18  -24.19  -15.70   42.88  1.100 -0.550 0 2 0 2  0.417  0.417 330.91    0.00     0.00    0.00   1   90.00     0    0    0   110 2400.0  1   1    8    0   0.000    0.000    0.000  1
 83   1    1  1 0 0    82  16    79  576  576     0.00000   5.90940 1.24659e-003  1245  2164  -2.88   0.48  -0.18  -24.20  -15.72   42.33  1.100 -0.550 0 2 0 2  0.417  0.417 330.91    0.00     0.00    0.00   1   90.00     0    0    0   110 2400.0  1   1    8    0   0.000    0.000    0.000  1
 84   1    1  1 0 0    83  16    79  576  576     0.00000   5.90940 1.24659e-003  1244  2162  -2.88   0.48  -0.18  -24.20  -15.75   41.78  1.100 -0.550 0 2 0 2  0.417  0.417 330.91    0.00     0.00    0.00   1   90.00     0    0    0   110 2400.0  1   1    8    0   0.000    0.000    0.000  1
