# === DATA DESCRIPTION FILE ======================================================
#
# CAUTION - Investigational device.
# Limited by Federal Law to investigational use.
#
#
# CLINICAL TRYOUT             Research image export tool     V4.2
#
# === GENERAL INFORMATION ========================================================
#
.    Protocol name                      :   WIP 3D FLAIR Sag UMich SENSE
.    Series Type                        :   Image   MRSERIES
.    Acquisition nr                     :   4
.    Reconstruction nr                  :   1
.    Scan Duration [sec]                :   528
.    Max. number of cardiac phases      :   1
.    Max. number of echoes              :   1
.    Max. number of slices/locations    :   327
.    Max. number of dynamics            :   1
.    Max. number of mixes               :   1
.    Patient position                   :   Head First Supine
.    Preparation direction              :   Anterior-Posterior
.    Technique                          :   TIR
.    Scan resolution  (x, y)            :   216  220
.    Scan mode                          :   3D
.    Repetition time [ms]               :   8000.000  
.    FOV (ap,fh,rl) [mm]                :   240.000  200.000  179.850
.    Water Fat shift [pixels]           :   0.858
.    Angulation midslice(ap,fh,rl)[degr]:   0.599  -4.425  0.089
.    Off Centre midslice(ap,fh,rl) [mm] :   -10.748  13.364  -2.045
.    Flow compensation <0=no 1=yes> ?   :   1
.    Presaturation     <0=no 1=yes> ?   :   0
.    Phase encoding velocity [cm/sec]   :   0.000000  0.000000  0.000000
.    MTC               <0=no 1=yes> ?   :   0
.    SPIR              <0=no 1=yes> ?   :   1
.    EPI factor        <0,1=no EPI>     :   1
.    Dynamic scan      <0=no 1=yes> ?   :   0
.    Diffusion         <0=no 1=yes> ?   :   0
.    Diffusion echo time [ms]           :   0.0000
.    Max. number of diffusion values    :   1
.    Max. number of gradient orients    :   1
.    Number of label types   <0=no ASL> :   0
#
# === PIXEL VALUES =============================================================
#  PV = pixel value in REC file, FP = floating point value, DV = displayed value on console
#  RS = rescale slope,           RI = rescale intercept,    SS = scale slope
#  DV = PV * RS + RI             FP = DV / (RS * SS)
#
# === IMAGE INFORMATION DEFINITION =============================================
#  The rest of this file contains ONE line per image, this line contains the following information:
#
#  slice number                             (integer)
#  echo number                              (integer)
#  dynamic scan number                      (integer)
#  cardiac phase number                     (integer)
#  image_type_mr                            (integer)
#  scanning sequence                        (integer)
#  index in REC file (in images)            (integer)
#  image pixel size (in bits)               (integer)
#  scan percentage                          (integer)
#  recon resolution (x y)                   (2*integer)
#  rescale intercept                        (float)
#  rescale slope                            (float)
#  scale slope                              (float)
#  window center                            (integer)
#  window width                             (integer)
#  image angulation (ap,fh,rl in degrees )  (3*float)
#  image offcentre (ap,fh,rl in mm )        (3*float)
#  slice thickness (in mm )                 (float)
#  slice gap (in mm )                       (float)
#  image_display_orientation                (integer)
#  slice orientation ( TRA/SAG/COR )        (integer)
#  fmri_status_indication                   (integer)
#  image_type_ed_es  (end diast/end syst)   (integer)
#  pixel spacing (x,y) (in mm)              (2*float)
#  echo_time                                (float)
#  dyn_scan_begin_time                      (float)
#  trigger_time                             (float)
#  diffusion_b_factor                       (float)
#  number of averages                       (integer)
#  image_flip_angle (in degrees)            (float)
#  cardiac frequency   (bpm)                (integer)
#  minimum RR-interval (in ms)              (integer)
#  maximum RR-interval (in ms)              (integer)
#  TURBO factor  <0=no turbo>               (integer)
#  Inversion delay (in ms)                  (float)
#  diffusion b value number    (imagekey!)  (integer)
#  gradient orientation number (imagekey!)  (integer)
#  contrast type                            (string)
#  diffusion anisotropy type                (string)
#  diffusion (ap, fh, rl)                   (3*float)
#  label type (ASL)            (imagekey!)  (integer)
#
# === IMAGE INFORMATION ==========================================================
#  sl ec  dyn ph ty    idx pix scan% rec size                (re)scale              window        angulation              offcentre        thick   gap   info      spacing     echo     dtime   ttime    diff  avg  flip    freq   RR-int  turbo delay b grad cont anis         diffusion       L.ty

  1   1    1  1 0 0     0  16    79  576  576     0.00000   5.77070 1.24847e-003    17    30   0.60  -4.42   0.09  -17.66   12.42   87.33  1.100 -0.550 0 2 0 2  0.417  0.417 331.30    0.00     0.00    0.00   1   90.00     0    0    0   110 2400.0  1   1    8    0   0.000    0.000    0.000  1
  2   1    1  1 0 0     1  16    79  576  576     0.00000   5.77070 1.24847e-003    93   162   0.60  -4.42   0.09  -17.62   12.42   86.79  1.100 -0.550 0 2 0 2  0.417  0.417 331.30    0.00     0.00    0.00   1   90.00     0    0    0   110 2400.0  1   1    8    0   0.000    0.000    0.000  1
  3   1    1  1 0 0     2  16    79  576  576     0.00000   5.77070 1.24847e-003   160   279   0.60  -4.42   0.09  -17.58   12.43   86.24  1.100 -0.550 0 2 0 2  0.417  0.417 331.30    0.00     0.00    0.00   1   90.00     0    0    0   110 2400.0  1   1    8    0   0.000    0.000    0.000  1
  4   1    1  1 0 0     3  16    79  576  576     0.00000   5.77070 1.24847e-003   182   317   0.60  -4.42   0.09  -17.54   12.44   85.69  1.100 -0.550 0 2 0 2  0.417  0.417 331.30    0.00     0.00    0.00   1   90.00     0    0    0   110 2400.0  1   1    8    0   0.000    0.000    0.000  1
  5   1    1  1 0 0     4  16    79  576  576     0.00000   5.77070 1.24847e-003   211   366   0.60  -4.42   0.09  -17.49   12.44   85.14  1.100 -0.550 0 2 0 2  0.417  0.417 331.30    0.00     0.00    0.00   1   90.00     0    0    0   110 2400.0  1   1    8    0   0.000    0.000    0.000  1
  6   1    1  1 0 0     5  16    79  576  576     0.00000   5.77070 1.24847e-003   218   378   0.60  -4.42   0.09  -17.45   12.45   84.59  1.100 -0.550 0 2 0 2  0.417  0.417 331.30    0.00     0.00    0.00   1   90.00     0    0    0   110 2400.0  1   1    8    0   0.000    0.000    0.000  1
  7   1    1  1 0 0     6  16    79  576  576     0.00000   5.77070 1.24847e-003   219   380   0.60  -4.42   0.09  -17.41   12.45   84.04  1.100 -0.550 0 2 0 2  0.417  0.417 331.30    0.00     0.00    0.00   1   90.00     0    0    0   110 2400.0  1   1    8    0   0.000    0.000    0.000  1
  8   1    1  1 0 0     7  16    79  576  576     0.00000   5.77070 1.24847e-003   203   352   0.60  -4.42   0.09  -17.37   12.46   83.50  1.100 -0.550 0 2 0 2  0.417  0.417 331.30    0.00     0.00    0.00   1   90.00     0    0    0   110 2400.0  1   1    8    0   0.000    0.000    0.000  1
  9   1    1  1 0 0     8  16    79  576  576     0.00000   5.77070 1.24847e-003   206   358   0.60  -4.42   0.09  -17.32   12.46   82.95  1.100 -0.550 0 2 0 2  0.417  0.417 331.30    0.00     0.00    0.00   1   90.00     0    0    0   110 2400.0  1   1    8    0   0.000    0.000    0.000  1
 10   1    1  1 0 0     9  16    79  576  576     0.00000   5.77070 1.24847e-003   209   363   0.60  -4.42   0.09  -17.28   12.47   82.40  1.100 -0.550 0 2 0 2  0.417  0.417 331.30    0.00     0.00    0.00   1   90.00     0    0    0   110 2400.0  1   1    8    0   0.000    0.000    0.000  1
 11   1    1  1 0 0    10  16    79  576  576     0.00000   5.77070 1.24847e-003   204   355   0.60  -4.42   0.09  -17.24   12.48   81.85  1.100 -0.550 0 2 0 2  0.417  0.417 331.30    0.00     0.00    0.00   1   90.00     0    0    0   110 2400.0  1   1    8    0   0.000    0.000    0.000  1
 12   1    1  1 0 0    11  16    79  576  576     0.00000   5.77070 1.24847e-003   201   349   0.60  -4.42   0.09  -17.20   12.48   81.30  1.100 -0.550 0 2 0 2  0.417  0.417 331.30    0.00     0.00    0.00   1   90.00     0    0    0   110 2400.0  1   1    8    0   0.000    0.000    0.000  1
 13   1    1  1 0 0    12  16    79  576  576     0.00000   5.77070 1.24847e-003   197   343   0.60  -4.42   0.09  -17.15   12.49   80.75  1.100 -0.550 0 2 0 2  0.417  0.417 331.30    0.00     0.00    0.00   1   90.00     0    0    0   110 2400.0  1   1    8    0   0.000    0.000    0.000  1
 14   1    1  1 0 0    13  16    79  576  576     0.00000   5.77070 1.24847e-003   205   356   0.60  -4.42   0.09  -17.11   12.49   80.21  1.100 -0.550 0 2 0 2  0.417  0.417 331.30    0.00     0.00    0.00   1   90.00     0    0    0   110 2400.0  1   1    8    0   0.000    0.000    0.000  1
 15   1    1  1 0 0    14  16    79  576  576     0.00000   5.77070 1.24847e-003   223   388   0.60  -4.42   0.09  -17.07   12.50   79.66  1.100 -0.550 0 2 0 2  0.417  0.417 331.30    0.00     0.00    0.00   1   90.00     0    0    0   110 2400.0  1   1    8    0   0.000    0.000    0.000  1
 16   1    1  1 0 0    15  16    79  576  576     0.00000   5.77070 1.24847e-003   231   401   0.60  -4.42   0.09  -17.03   12.51   79.11  1.100 -0.550 0 2 0 2  0.417  0.417 331.30    0.00     0.00    0.00   1   90.00     0    0    0   110 2400.0  1   1    8    0   0.000    0.000    0.000  1
 17   1    1  1 0 0    16  16    79  576  576     0.00000   5.77070 1.24847e-003   245   426   0.60  -4.42   0.09  -16.98   12.51   78.56  1.100 -0.550 0 2 0 2  0.417  0.417 331.30    0.00     0.00    0.00   1   90.00     0    0    0   110 2400.0  1   1    8    0   0.000    0.000    0.000  1
 18   1    1  1 0 0    17  16    79  576  576     0.00000   5.77070 1.24847e-003   251   437   0.60  -4.42   0.09  -16.94   12.52   78.01  1.100 -0.550 0 2 0 2  0.417  0.417 331.30    0.00     0.00    0.00   1   90.00     0    0    0   110 2400.0  1   1    8    0   0.000    0.000    0.000  1
 19   1    1  1 0 0    18  16    79  576  576     0.00000   5.77070 1.24847e-003   252   438   0.60  -4.42   0.09  -16.90   12.52   77.46  1.100 -0.550 0 2 0 2  0.417  0.417 331.30    0.00     0.00    0.00   1   90.00     0    0    0   110 2400.0  1   1    8    0   0.000    0.000    0.000  1
 20   1    1  1 0 0    19  16    79  576  576     0.00000   5.77070 1.24847e-003   260   452   0.60  -4.42   0.09  -16.86   12.53   76.92  1.100 -0.550 0 2 0 2  0.417  0.417 331.30    0.00     0.00    0.00   1   90.00     0    0    0   110 2400.0  1   1    8    0   0.000    0.000    0.000  1
 21   1    1  1 0 0    20  16    79  576  576     0.00000   5.77070 1.24847e-003   273   475   0.60  -4.42   0.09  -16.81   12.53   76.37  1.100 -0.550 0 2 0 2  0.417  0.417 331.30    0.00     0.00    0.00   1   90.00     0    0    0   110 2400.0  1   1    8    0   0.000    0.000    0.000  1
 22   1    1  1 0 0    21  16    79  576  576     0.00000   5.77070 1.24847e-003   297   516   0.60  -4.42   0.09  -16.77   12.54   75.82  1.100 -0.550 0 2 0 2  0.417  0.417 331.30    0.00     0.00    0.00   1   90.00     0    0    0   110 2400.0  1   1    8    0   0.000    0.000    0.000  1
 23   1    1  1 0 0    22  16    79  576  576     0.00000   5.77070 1.24847e-003   336   584   0.60  -4.42   0.09  -16.73   12.55   75.27  1.100 -0.550 0 2 0 2  0.417  0.417 331.30    0.00     0.00    0.00   1   90.00     0    0    0   110 2400.0  1   1    8    0   0.000    0.000    0.000  1
 24   1    1  1 0 0    23  16    79  576  576     0.00000   5.77070 1.24847e-003   377   656   0.60  -4.42   0.09  -16.69   12.55   74.72  1.100 -0.550 0 2 0 2  0.417  0.417 331.30    0.00     0.00    0.00   1   90.00     0    0    0   110 2400.0  1   1    8    0   0.000    0.000    0.000  1
 25   1    1  1 0 0    24  16    79  576  576     0.00000   5.77070 1.24847e-003   396   688   0.60  -4.42   0.09  -16.65   12.56   74.17  1.100 -0.550 0 2 0 2  0.417  0.417 331.30    0.00     0.00    0.00   1   90.00     0    0    0   110 2400.0  1   1    8    0   0.000    0.000    0.000  1
 26   1    1  1 0 0    25  16    79  576  576     0.00000   5.77070 1.24847e-003   406   706   0.60  -4.42   0.09  -16.60   12.56   73.63  1.100 -0.550 0 2 0 2  0.417  0.417 331.30    0.00     0.00    0.00   1   90.00     0    0    0   110 2400.0  1   1    8    0   0.000    0.000    0.000  1
 27   1    1  1 0 0    26  16    79  576  576     0.00000   5.77070 1.24847e-003   430   747   0.60  -4.42   0.09  -16.56   12.57   73.08  1.100 -0.550 0 2 0 2  0.417  0.417 331.30    0.00     0.00    0.00   1   90.00     0    0    0   110 2400.0  1   1    8    0   0.000    0.000    0.000  1
 28   1    1  1 0 0    27  16    79  576  576     0.00000   5.77070 1.24847e-003   457   794   0.60  -4.42   0.09  -16.52   12.57   72.53  1.100 -0.550 0 2 0 2  0.417  0.417 331.30    0.00     0.00    0.00   1   90.00     0    0    0   110 2400.0  1   1    8    0   0.000    0.000    0.000  1
 29   1    1  1 0 0    28  16    79  576  576     0.00000   5.77070 1.24847e-003   481   837   0.60  -4.42   0.09  -16.48   12.58   71.98  1.100 -0.550 0 2 0 2  0.417  0.417 331.30    0.00     0.00    0.00   1   90.00     0    0    0   110 2400.0  1   1    8    0   0.000    0.000    0.000  1
 30   1    1  1 0 0    29  16    79  576  576     0.00000   5.77070 1.24847e-003   513   892   0.60  -4.42   0.09  -16.43   12.59   71.43  1.100 -0.550 0 2 0 2  0.417  0.417 331.30    0.00     0.00    0.00   1   90.00     0    0    0   110 2400.0  1   1    8    0   0.000    0.000    0.000  1
 31   1    1  1 0 0    30  16    79  576  576     0.00000   5.77070 1.24847e-003   531   922   0.60  -4.42   0.09  -16.39   12.59   70.88  1.100 -0.550 0 2 0 2  0.417  0.417 331.30    0.00     0.00    0.00   1   90.00     0    0    0   110 2400.0  1   1    8    0   0.000    0.000    0.000  1
 32   1    1  1 0 0    31  16    79  576  576     0.00000   5.77070 1.24847e-003   559   971   0.60  -4.42   0.09  -16.35   12.60   70.34  1.100 -0.550 0 2 0 2  0.417  0.417 331.30    0.00     0.00    0.00   1   90.00     0    0    0   110 2400.0  1   1    8    0   0.000    0.000    0.000  1
 33   1    1  1 0 0    32  16    79  576  576     0.00000   5.77070 1.24847e-003   590  1026   0.60  -4.42   0.09  -16.31   12.60   69.79  1.100 -0.550 0 2 0 2  0.417  0.417 331.30    0.00     0.00    0.00   1   90.00     0    0    0   110 2400.0  1   1    8    0   0.000    0.000    0.000  1
 34   1    1  1 0 0    33  16    79  576  576     0.00000   5.77070 1.24847e-003   608  1057   0.60  -4.42   0.09  -16.26   12.61   69.24  1.100 -0.550 0 2 0 2  0.417  0.417 331.30    0.00     0.00    0.00   1   90.00     0    0    0   110 2400.0  1   1    8    0   0.000    0.000    0.000  1
 35   1    1  1 0 0    34  16    79  576  576     0.00000   5.77070 1.24847e-003   629  1094   0.60  -4.42   0.09  -16.22   12.62   68.69  1.100 -0.550 0 2 0 2  0.417  0.417 331.30    0.00     0.00    0.00   1   90.00     0    0    0   110 2400.0  1   1    8    0   0.000    0.000    0.000  1
 36   1    1  1 0 0    35  16    79  576  576     0.00000   5.77070 1.24847e-003   626  1089   0.60  -4.42   0.09  -16.18   12.62   68.14  1.100 -0.550 0 2 0 2  0.417  0.417 331.30    0.00     0.00    0.00   1   90.00     0    0    0   110 2400.0  1   1    8    0   0.000    0.000    0.000  1
 37   1    1  1 0 0    36  16    79  576  576     0.00000   5.77070 1.24847e-003   640  1112   0.60  -4.42   0.09  -16.14   12.63   67.59  1.100 -0.550 0 2 0 2  0.417  0.417 331.30    0.00     0.00    0.00   1   90.00     0    0    0   110 2400.0  1   1    8    0   0.000    0.000    0.000  1
 38   1    1  1 0 0    37  16    79  576  576     0.00000   5.77070 1.24847e-003   682  1186   0.60  -4.42   0.09  -16.09   12.63   67.05  1.100 -0.550 0 2 0 2  0.417  0.417 331.30    0.00     0.00    0.00   1   90.00     0    0    0   110 2400.0  1   1    8    0   0.000    0.000    0.000  1
 39   1    1  1 0 0    38  16    79  576  576     0.00000   5.77070 1.24847e-003   745  1295   0.60  -4.42   0.09  -16.05   12.64   66.50  1.100 -0.550 0 2 0 2  0.417  0.417 331.30    0.00     0.00    0.00   1   90.00     0    0    0   110 2400.0  1   1    8    0   0.000    0.000    0.000  1
 40   1    1  1 0 0    39  16    79  576  576     0.00000   5.77070 1.24847e-003   796  1383   0.60  -4.42   0.09  -16.01   12.64   65.95  1.100 -0.550 0 2 0 2  0.417  0.417 331.30    0.00     0.00    0.00   1   90.00     0    0    0   110 2400.0  1   1    8    0   0.000    0.000    0.000  1
 41   1    1  1 0 0    40  16    79  576  576     0.00000   5.77070 1.24847e-003   823  1431   0.60  -4.42   0.09  -15.97   12.65   65.40  1.100 -0.550 0 2 0 2  0.417  0.417 331.30    0.00     0.00    0.00   1   90.00     0    0    0   110 2400.0  1   1    8    0   0.000    0.000    0.000  1
 42   1    1  1 0 0    41  16    79  576  576     0.00000   5.77070 1.24847e-003   842  1464   0.60  -4.42   0.09  -15.92   12.66   64.85  1.100 -0.550 0 2 0 2  0.417  0.417 331.30    0.00     0.00    0.00   1   90.00     0    0    0   110 2400.0  1   1    8    0   0.000    0.000    0.000  1
 43   1    1  1 0 0    42  16    79  576  576     0.00000   5.77070 1.24847e-003   855  1486   0.60  -4.42   0.09  -15.88   12.66   64.30  1.100 -0.550 0 2 0 2  0.417  0.417 331.30    0.00     0.00    0.00   1   90.00     0    0    0   110 2400.0  1   1    8    0   0.000    0.000    0.000  1
 44   1    1  1 0 0    43  16    79  576  576     0.00000   5.77070 1.24847e-003   857  1489   0.60  -4.42   0.09  -15.84   12.67   63.76  1.100 -0.550 0 2 0 2  0.417  0.417 331.30    0.00     0.00    0.00   1   90.00     0    0    0   110 2400.0  1   1    8    0   0.000    0.000    0.000  1
 45   1    1  1 0 0    44  16    79  576  576     0.00000   5.77070 1.24847e-003   872  1515   0.60  -4.42   0.09  -15.80   12.67   63.21  1.100 -0.550 0 2 0 2  0.417  0.417 331.30    0.00     0.00    0.00   1   90.00     0    0    0   110 2400.0  1   1    8    0   0.000    0.000    0.000  1
 46   1    1  1 0 0    45  16    79  576  576     0.00000   5.77070 1.24847e-003   910  1581   0.60  -4.42   0.09  -15.75   12.68   62.66  1.100 -0.550 0 2 0 2  0.417  0.417 331.30    0.00     0.00    0.00   1   90.00     0    0    0   110 2400.0  1   1    8    0   0.000    0.000    0.000  1
 47   1    1  1 0 0    46  16    79  576  576     0.00000   5.77070 1.24847e-003   927  1612   0.60  -4.42   0.09  -15.71   12.69   62.11  1.100 -0.550 0 2 0 2  0.417  0.417 331.30    0.00     0.00    0.00   1   90.00     0    0    0   110 2400.0  1   1    8    0   0.000    0.000    0.000  1
 48   1    1  1 0 0    47  16    79  576  576     0.00000   5.77070 1.24847e-003   958  1666   0.60  -4.42   0.09  -15.67   12.69   61.56  1.100 -0.550 0 2 0 2  0.417  0.417 331.30    0.00     0.00    0.00   1   90.00     0    0    0   110 2400.0  1   1    8    0   0.000    0.000    0.000  1
 49   1    1  1 0 0    48  16    79  576  576     0.00000   5.77070 1.24847e-003   960  1669   0.60  -4.42   0.09  -15.63   12.70   61.01  1.100 -0.550 0 2 0 2  0.417  0.417 331.30    0.00     0.00    0.00   1   90.00     0    0    0   110 2400.0  1   1    8    0   0.000    0.000    0.000  1
 50   1    1  1 0 0    49  16    79  576  576     0.00000   5.77070 1.24847e-003   958  1666   0.60  -4.42   0.09  -15.58   12.70   60.47  1.100 -0.550 0 2 0 2  0.417  0.417 331.30    0.00     0.00    0.00   1   90.00     0    0    0   110 2400.0  1   1    8    0   0.000    0.000    0.000  1
 51   1    1  1 0 0    50  16    79  576  576     0.00000   5.77070 1.24847e-003   953  1656   0.60  -4.42   0.09  -15.54   12.71   59.92  1.100 -0.550 0 2 0 2  0.417  0.417 331.30    0.00     0.00    0.00   1   90.00     0    0    0   110 2400.0  1   1    8    0   0.000    0.000    0.000  1
 52   1    1  1 0 0    51  16    79  576  576     0.00000   5.77070 1.24847e-003   959  1667   0.60  -4.42   0.09  -15.50   12.71   59.37  1.100 -0.550 0 2 0 2  0.417  0.417 331.30    0.00     0.00    0.00   1   90.00     0    0    0   110 2400.0  1   1    8    0   0.000    0.000    0.000  1
 53   1    1  1 0 0    52  16    79  576  576     0.00000   5.77070 1.24847e-003   976  1696   0.60  -4.42   0.09  -15.46   12.72   58.82  1.100 -0.550 0 2 0 2  0.417  0.417 331.30    0.00     0.00    0.00   1   90.00     0    0    0   110 2400.0  1   1    8    0   0.000    0.000    0.000  1
 54   1    1  1 0 0    53  16    79  576  576     0.00000   5.77070 1.24847e-003   984  1711   0.60  -4.42   0.09  -15.41   12.73   58.27  1.100 -0.550 0 2 0 2  0.417  0.417 331.30    0.00     0.00    0.00   1   90.00     0    0    0   110 2400.0  1   1    8    0   0.000    0.000    0.000  1
 55   1    1  1 0 0    54  16    79  576  576     0.00000   5.77070 1.24847e-003   986  1714   0.60  -4.42   0.09  -15.37   12.73   57.72  1.100 -0.550 0 2 0 2  0.417  0.417 331.30    0.00     0.00    0.00   1   90.00     0    0    0   110 2400.0  1   1    8    0   0.000    0.000    0.000  1
 56   1    1  1 0 0    55  16    79  576  576     0.00000   5.77070 1.24847e-003   971  1687   0.60  -4.42   0.09  -15.33   12.74   57.18  1.100 -0.550 0 2 0 2  0.417  0.417 331.30    0.00     0.00    0.00   1   90.00     0    0    0   110 2400.0  1   1    8    0   0.000    0.000    0.000  1
 57   1    1  1 0 0    56  16    79  576  576     0.00000   5.77070 1.24847e-003   970  1685   0.60  -4.42   0.09  -15.29   12.74   56.63  1.100 -0.550 0 2 0 2  0.417  0.417 331.30    0.00     0.00    0.00   1   90.00     0    0    0   110 2400.0  1   1    8    0   0.000    0.000    0.000  1
 58   1    1  1 0 0    57  16    79  576  576     0.00000   5.77070 1.24847e-003   971  1687   0.60  -4.42   0.09  -15.25   12.75   56.08  1.100 -0.550 0 2 0 2  0.417  0.417 331.30    0.00     0.00    0.00   1   90.00     0    0    0   110 2400.0  1   1    8    0   0.000    0.000    0.000  1
 59   1    1  1 0 0    58  16    79  576  576     0.00000   5.77070 1.24847e-003   969  1685   0.60  -4.42   0.09  -15.20   12.75   55.53  1.100 -0.550 0 2 0 2  0.417  0.417 331.30    0.00     0.00    0.00   1   90.00     0    0    0   110 2400.0  1   1    8    0   0.000    0.000    0.000  1
 60   1    1  1 0 0    59  16    79  576  576     0.00000   5.77070 1.24847e-003   972  1689   0.60  -4.42   0.09  -15.16   12.76   54.98  1.100 -0.550 0 2 0 2  0.417  0.417 331.30    0.00     0.00    0.00   1   90.00     0    0    0   110 2400.0  1   1    8    0   0.000    0.000    0.000  1
 61   1    1  1 0 0    60  16    79  576  576     0.00000   5.77070 1.24847e-003   967  1681   0.60  -4.42   0.09  -15.12   12.77   54.43  1.100 -0.550 0 2 0 2  0.417  0.417 331.30    0.00     0.00    0.00   1   90.00     0    0    0   110 2400.0  1   1    8    0   0.000    0.000    0.000  1
 62   1    1  1 0 0    61  16    79  576  576     0.00000   5.77070 1.24847e-003   970  1686   0.60  -4.42   0.09  -15.08   12.77   53.89  1.100 -0.550 0 2 0 2  0.417  0.417 331.30    0.00     0.00    0.00   1   90.00     0    0    0   110 2400.0  1   1    8    0   0.000    0.000    0.000  1
 63   1    1  1 0 0    62  16    79  576  576     0.00000   5.77070 1.24847e-003   987  1716   0.60  -4.42   0.09  -15.03   12.78   53.34  1.100 -0.550 0 2 0 2  0.417  0.417 331.30    0.00     0.00    0.00   1   90.00     0    0    0   110 2400.0  1   1    8    0   0.000    0.000    0.000  1
 64   1    1  1 0 0    63  16    79  576  576     0.00000   5.77070 1.24847e-003   995  1730   0.60  -4.42   0.09  -14.99   12.78   52.79  1.100 -0.550 0 2 0 2  0.417  0.417 331.30    0.00     0.00    0.00   1   90.00     0    0    0   110 2400.0  1   1    8    0   0.000    0.000    0.000  1
 65   1    1  1 0 0    64  16    79  576  576     0.00000   5.77070 1.24847e-003  1009  1754   0.60  -4.42   0.09  -14.95   12.79   52.24  1.100 -0.550 0 2 0 2  0.417  0.417 331.30    0.00     0.00    0.00   1   90.00     0    0    0   110 2400.0  1   1    8    0   0.000    0.000    0.000  1
 66   1    1  1 0 0    65  16    79  576  576     0.00000   5.77070 1.24847e-003  1025  1782   0.60  -4.42   0.09  -14.91   12.80   51.69  1.100 -0.550 0 2 0 2  0.417  0.417 331.30    0.00     0.00    0.00   1   90.00     0    0    0   110 2400.0  1   1    8    0   0.000    0.000    0.000  1
 67   1    1  1 0 0    66  16    79  576  576     0.00000   5.77070 1.24847e-003  1033  1796   0.60  -4.42   0.09  -14.86   12.80   51.14  1.100 -0.550 0 2 0 2  0.417  0.417 331.30    0.00     0.00    0.00   1   90.00     0    0    0   110 2400.0  1   1    8    0   0.000    0.000    0.000  1
 68   1    1  1 0 0    67  16    79  576  576     0.00000   5.77070 1.24847e-003  1037  1803   0.60  -4.42   0.09  -14.82   12.81   50.60  1.100 -0.550 0 2 0 2  0.417  0.417 331.30    0.00     0.00    0.00   1   90.00     0    0    0   110 2400.0  1   1    8    0   0.000    0.000    0.000  1
 69   1    1  1 0 0    68  16    79  576  576     0.00000   5.77070 1.24847e-003  1037  1803   0.60  -4.42   0.09  -14.78   12.81   50.05  1.100 -0.550 0 2 0 2  0.417  0.417 331.30    0.00     0.00    0.00   1   90.00     0    0    0   110 2400.0  1   1    8    0   0.000    0.000    0.000  1
 70   1    1  1 0 0    69  16    79  576  576     0.00000   5.77070 1.24847e-003  1041  1809   0.60  -4.42   0.09  -14.74   12.82   49.50  1.100 -0.550 0 2 0 2  0.417  0.417 331.30    0.00     0.00    0.00   1   90.00     0    0    0   110 2400.0  1   1    8    0   0.000    0.000    0.000  1
 71   1    1  1 0 0    70  16    79  576  576     0.00000   5.77070 1.24847e-003  1062  1845   0.60  -4.42   0.09  -14.69   12.82   48.95  1.100 -0.550 0 2 0 2  0.417  0.417 331.30    0.00     0.00    0.00   1   90.00     0    0    0   110 2400.0  1   1    8    0   0.000    0.000    0.000  1
 72   1    1  1 0 0    71  16    79  576  576     0.00000   5.77070 1.24847e-003  1069  1857   0.60  -4.42   0.09  -14.65   12.83   48.40  1.100 -0.550 0 2 0 2  0.417  0.417 331.30    0.00     0.00    0.00   1   90.00     0    0    0   110 2400.0  1   1    8    0   0.000    0.000    0.000  1
 73   1    1  1 0 0    72  16    79  576  576     0.00000   5.77070 1.24847e-003  1093  1900   0.60  -4.42   0.09  -14.61   12.84   47.85  1.100 -0.550 0 2 0 2  0.417  0.417 331.30    0.00     0.00    0.00   1   90.00     0    0    0   110 2400.0  1   1    8    0   0.000    0.000    0.000  1
 74   1    1  1 0 0    73  16    79  576  576     0.00000   5.77070 1.24847e-003  1103  1918   0.60  -4.42   0.09  -14.57   12.84   47.31  1.100 -0.550 0 2 0 2  0.417  0.417 331.30    0.00     0.00    0.00   1   90.00     0    0    0   110 2400.0  1   1    8    0   0.000    0.000    0.000  1
 75   1    1  1 0 0    74  16    79  576  576     0.00000   5.77070 1.24847e-003  1114  1936   0.60  -4.42   0.09  -14.52   12.85   46.76  1.100 -0.550 0 2 0 2  0.417  0.417 331.30    0.00     0.00    0.00   1   90.00     0    0    0   110 2400.0  1   1    8    0   0.000    0.000    0.000  1
 76   1    1  1 0 0    75  16    79  576  576     0.00000   5.77070 1.24847e-003  1117  1942   0.60  -4.42   0.09  -14.48   12.85   46.21  1.100 -0.550 0 2 0 2  0.417  0.417 331.30    0.00     0.00    0.00   1   90.00     0    0    0   110 2400.0  1   1    8    0   0.000    0.000    0.000  1
 77   1    1  1 0 0    76  16    79  576  576     0.00000   5.77070 1.24847e-003  1119  1945   0.60  -4.42   0.09  -14.44   12.86   45.66  1.100 -0.550 0 2 0 2  0.417  0.417 331.30    0.00     0.00    0.00   1   90.00     0    0    0   110 2400.0  1   1    8    0   0.000    0.000    0.000  1
 78   1    1  1 0 0    77  16    79  576  576     0.00000   5.77070 1.24847e-003  1128  1961   0.60  -4.42   0.09  -14.40   12.86   45.11  1.100 -0.550 0 2 0 2  0.417  0.417 331.30    0.00     0.00    0.00   1   90.00     0    0    0   110 2400.0  1   1    8    0   0.000    0.000    0.000  1
 79   1    1  1 0 0    78  16    79  576  576     0.00000   5.77070 1.24847e-003  1138  1977   0.60  -4.42   0.09  -14.35   12.87   44.56  1.100 -0.550 0 2 0 2  0.417  0.417 331.30    0.00     0.00    0.00   1   90.00     0    0    0   110 2400.0  1   1    8    0   0.000    0.000    0.000  1
 80   1    1  1 0 0    79  16    79  576  576     0.00000   5.77070 1.24847e-003  1145  1990   0.60  -4.42   0.09  -14.31   12.88   44.02  1.100 -0.550 0 2 0 2  0.417  0.417 331.30    0.00     0.00    0.00   1   90.00     0    0    0   110 2400.0  1   1    8    0   0.000    0.000    0.000  1
 81   1    1  1 0 0    80  16    79  576  576     0.00000   5.77070 1.24847e-003  1150  2000   0.60  -4.42   0.09  -14.27   12.88   43.47  1.100 -0.550 0 2 0 2  0.417  0.417 331.30    0.00     0.00    0.00   1   90.00     0    0    0   110 2400.0  1   1    8    0   0.000    0.000    0.000  1
 82   1    1  1 0 0    81  16    79  576  576     0.00000   5.77070 1.24847e-003  1159  2015   0.60  -4.42   0.09  -14.23   12.89   42.92  1.100 -0.550 0 2 0 2  0.417  0.417 331.30    0.00     0.00    0.00   1   90.00     0    0    0   110 2400.0  1   1    8    0   0.000    0.000    0.000  1
 83   1    1  1 0 0    82  16    79  576  576     0.00000   5.77070 1.24847e-003  1181  2053   0.60  -4.42   0.09  -14.18   12.89   42.37  1.100 -0.550 0 2 0 2  0.417  0.417 331.30    0.00     0.00    0.00   1   90.00     0    0    0   110 2400.0  1   1    8    0   0.000    0.000    0.000  1
 84   1    1  1 0 0    83  16    79  576  576     0.00000   5.77070 1.24847e-003  1201  2088   0.60  -4.42   0.09  -14.14   12.90   41.82  1.100 -0.550 0 2 0 2  0.417  0.417 331.30    0.00     0.00    0.00   1   90.00     0    0    0   110 2400.0  1   1    8    0   0.000    0.000    0.000  1
