# === DATA DESCRIPTION FILE ======================================================
#
# CAUTION - Investigational device.
# Limited by Federal Law to investigational use.
#
#
# CLINICAL TRYOUT             Research image export tool     V4.2
#
# === GENERAL INFORMATION ========================================================
#
.    Protocol name                      :   WIP MPrageADNIsag SENSE
.    Series Type                        :   Image   MRSERIES
.    Acquisition nr                     :   3
.    Reconstruction nr                  :   1
.    Scan Duration [sec]                :   356
.    Max. number of cardiac phases      :   1
.    Max. number of echoes              :   1
.    Max. number of slices/locations    :   170
.    Max. number of dynamics            :   1
.    Max. number of mixes               :   1
.    Patient position                   :   Head First Supine
.    Preparation direction              :   Anterior-Posterior
.    Technique                          :   T1TFE
.    Scan resolution  (x, y)            :   256  256
.    Scan mode                          :   3D
.    Repetition time [ms]               :   6.823  
.    FOV (ap,fh,rl) [mm]                :   240.000  256.000  204.000
.    Water Fat shift [pixels]           :   1.802
.    Angulation midslice(ap,fh,rl)[degr]:   0.599  -4.425  0.089
.    Off Centre midslice(ap,fh,rl) [mm] :   -10.748  13.364  -2.045
.    Flow compensation <0=no 1=yes> ?   :   0
.    Presaturation     <0=no 1=yes> ?   :   0
.    Phase encoding velocity [cm/sec]   :   0.000000  0.000000  0.000000
.    MTC               <0=no 1=yes> ?   :   0
.    SPIR              <0=no 1=yes> ?   :   0
.    EPI factor        <0,1=no EPI>     :   1
.    Dynamic scan      <0=no 1=yes> ?   :   0
.    Diffusion         <0=no 1=yes> ?   :   0
.    Diffusion echo time [ms]           :   0.0000
.    Max. number of diffusion values    :   1
.    Max. number of gradient orients    :   1
.    Number of label types   <0=no ASL> :   0
#
# === PIXEL VALUES =============================================================
#  PV = pixel value in REC file, FP = floating point value, DV = displayed value on console
#  RS = rescale slope,           RI = rescale intercept,    SS = scale slope
#  DV = PV * RS + RI             FP = DV / (RS * SS)
#
# === IMAGE INFORMATION DEFINITION =============================================
#  The rest of this file contains ONE line per image, this line contains the following information:
#
#  slice number                             (integer)
#  echo number                              (integer)
#  dynamic scan number                      (integer)
#  cardiac phase number                     (integer)
#  image_type_mr                            (integer)
#  scanning sequence                        (integer)
#  index in REC file (in images)            (integer)
#  image pixel size (in bits)               (integer)
#  scan percentage                          (integer)
#  recon resolution (x y)                   (2*integer)
#  rescale intercept                        (float)
#  rescale slope                            (float)
#  scale slope                              (float)
#  window center                            (integer)
#  window width                             (integer)
#  image angulation (ap,fh,rl in degrees )  (3*float)
#  image offcentre (ap,fh,rl in mm )        (3*float)
#  slice thickness (in mm )                 (float)
#  slice gap (in mm )                       (float)
#  image_display_orientation                (integer)
#  slice orientation ( TRA/SAG/COR )        (integer)
#  fmri_status_indication                   (integer)
#  image_type_ed_es  (end diast/end syst)   (integer)
#  pixel spacing (x,y) (in mm)              (2*float)
#  echo_time                                (float)
#  dyn_scan_begin_time                      (float)
#  trigger_time                             (float)
#  diffusion_b_factor                       (float)
#  number of averages                       (integer)
#  image_flip_angle (in degrees)            (float)
#  cardiac frequency   (bpm)                (integer)
#  minimum RR-interval (in ms)              (integer)
#  maximum RR-interval (in ms)              (integer)
#  TURBO factor  <0=no turbo>               (integer)
#  Inversion delay (in ms)                  (float)
#  diffusion b value number    (imagekey!)  (integer)
#  gradient orientation number (imagekey!)  (integer)
#  contrast type                            (string)
#  diffusion anisotropy type                (string)
#  diffusion (ap, fh, rl)                   (3*float)
#  label type (ASL)            (imagekey!)  (integer)
#
# === IMAGE INFORMATION ==========================================================
#  sl ec  dyn ph ty    idx pix scan% rec size                (re)scale              window        angulation              offcentre        thick   gap   info      spacing     echo     dtime   ttime    diff  avg  flip    freq   RR-int  turbo delay b grad cont anis         diffusion       L.ty

  1   1    1  1 0 2     0  16   100  256  256     0.00000   5.52625 2.44147e-004    31    53   0.60  -4.42   0.09  -18.57   12.29   99.05  1.200  0.000 0 2 0 2  1.000  1.000   3.14    0.00     0.00    0.00   1    8.00     0    0    0   240   0.0  1   1    7    0   0.000    0.000    0.000  1
  2   1    1  1 0 2     1  16   100  256  256     0.00000   5.52625 2.44147e-004    34    59   0.60  -4.42   0.09  -18.48   12.31   97.85  1.200  0.000 0 2 0 2  1.000  1.000   3.14    0.00     0.00    0.00   1    8.00     0    0    0   240   0.0  1   1    7    0   0.000    0.000    0.000  1
  3   1    1  1 0 2     2  16   100  256  256     0.00000   5.52625 2.44147e-004    32    56   0.60  -4.42   0.09  -18.38   12.32   96.65  1.200  0.000 0 2 0 2  1.000  1.000   3.14    0.00     0.00    0.00   1    8.00     0    0    0   240   0.0  1   1    7    0   0.000    0.000    0.000  1
  4   1    1  1 0 2     3  16   100  256  256     0.00000   5.52625 2.44147e-004    32    55   0.60  -4.42   0.09  -18.29   12.33   95.46  1.200  0.000 0 2 0 2  1.000  1.000   3.14    0.00     0.00    0.00   1    8.00     0    0    0   240   0.0  1   1    7    0   0.000    0.000    0.000  1
  5   1    1  1 0 2     4  16   100  256  256     0.00000   5.52625 2.44147e-004    33    58   0.60  -4.42   0.09  -18.20   12.34   94.26  1.200  0.000 0 2 0 2  1.000  1.000   3.14    0.00     0.00    0.00   1    8.00     0    0    0   240   0.0  1   1    7    0   0.000    0.000    0.000  1
  6   1    1  1 0 2     5  16   100  256  256     0.00000   5.52625 2.44147e-004    34    59   0.60  -4.42   0.09  -18.11   12.36   93.07  1.200  0.000 0 2 0 2  1.000  1.000   3.14    0.00     0.00    0.00   1    8.00     0    0    0   240   0.0  1   1    7    0   0.000    0.000    0.000  1
  7   1    1  1 0 2     6  16   100  256  256     0.00000   5.52625 2.44147e-004    37    64   0.60  -4.42   0.09  -18.01   12.37   91.87  1.200  0.000 0 2 0 2  1.000  1.000   3.14    0.00     0.00    0.00   1    8.00     0    0    0   240   0.0  1   1    7    0   0.000    0.000    0.000  1
  8   1    1  1 0 2     7  16   100  256  256     0.00000   5.52625 2.44147e-004    39    68   0.60  -4.42   0.09  -17.92   12.38   90.67  1.200  0.000 0 2 0 2  1.000  1.000   3.14    0.00     0.00    0.00   1    8.00     0    0    0   240   0.0  1   1    7    0   0.000    0.000    0.000  1
  9   1    1  1 0 2     8  16   100  256  256     0.00000   5.52625 2.44147e-004    39    68   0.60  -4.42   0.09  -17.83   12.40   89.48  1.200  0.000 0 2 0 2  1.000  1.000   3.14    0.00     0.00    0.00   1    8.00     0    0    0   240   0.0  1   1    7    0   0.000    0.000    0.000  1
 10   1    1  1 0 2     9  16   100  256  256     0.00000   5.52625 2.44147e-004    46    80   0.60  -4.42   0.09  -17.74   12.41   88.28  1.200  0.000 0 2 0 2  1.000  1.000   3.14    0.00     0.00    0.00   1    8.00     0    0    0   240   0.0  1   1    7    0   0.000    0.000    0.000  1
 11   1    1  1 0 2    10  16   100  256  256     0.00000   5.52625 2.44147e-004   202   352   0.60  -4.42   0.09  -17.64   12.42   87.08  1.200  0.000 0 2 0 2  1.000  1.000   3.14    0.00     0.00    0.00   1    8.00     0    0    0   240   0.0  1   1    7    0   0.000    0.000    0.000  1
 12   1    1  1 0 2    11  16   100  256  256     0.00000   5.52625 2.44147e-004   421   731   0.60  -4.42   0.09  -17.55   12.43   85.89  1.200  0.000 0 2 0 2  1.000  1.000   3.14    0.00     0.00    0.00   1    8.00     0    0    0   240   0.0  1   1    7    0   0.000    0.000    0.000  1
 13   1    1  1 0 2    12  16   100  256  256     0.00000   5.52625 2.44147e-004   350   609   0.60  -4.42   0.09  -17.46   12.45   84.69  1.200  0.000 0 2 0 2  1.000  1.000   3.14    0.00     0.00    0.00   1    8.00     0    0    0   240   0.0  1   1    7    0   0.000    0.000    0.000  1
 14   1    1  1 0 2    13  16   100  256  256     0.00000   5.52625 2.44147e-004   446   775   0.60  -4.42   0.09  -17.37   12.46   83.49  1.200  0.000 0 2 0 2  1.000  1.000   3.14    0.00     0.00    0.00   1    8.00     0    0    0   240   0.0  1   1    7    0   0.000    0.000    0.000  1
 15   1    1  1 0 2    14  16   100  256  256     0.00000   5.52625 2.44147e-004   386   670   0.60  -4.42   0.09  -17.27   12.47   82.30  1.200  0.000 0 2 0 2  1.000  1.000   3.14    0.00     0.00    0.00   1    8.00     0    0    0   240   0.0  1   1    7    0   0.000    0.000    0.000  1
 16   1    1  1 0 2    15  16   100  256  256     0.00000   5.52625 2.44147e-004   501   870   0.60  -4.42   0.09  -17.18   12.48   81.10  1.200  0.000 0 2 0 2  1.000  1.000   3.14    0.00     0.00    0.00   1    8.00     0    0    0   240   0.0  1   1    7    0   0.000    0.000    0.000  1
 17   1    1  1 0 2    16  16   100  256  256     0.00000   5.52625 2.44147e-004   551   958   0.60  -4.42   0.09  -17.09   12.50   79.91  1.200  0.000 0 2 0 2  1.000  1.000   3.14    0.00     0.00    0.00   1    8.00     0    0    0   240   0.0  1   1    7    0   0.000    0.000    0.000  1
 18   1    1  1 0 2    17  16   100  256  256     0.00000   5.52625 2.44147e-004   577  1003   0.60  -4.42   0.09  -17.00   12.51   78.71  1.200  0.000 0 2 0 2  1.000  1.000   3.14    0.00     0.00    0.00   1    8.00     0    0    0   240   0.0  1   1    7    0   0.000    0.000    0.000  1
 19   1    1  1 0 2    18  16   100  256  256     0.00000   5.52625 2.44147e-004   669  1163   0.60  -4.42   0.09  -16.90   12.52   77.51  1.200  0.000 0 2 0 2  1.000  1.000   3.14    0.00     0.00    0.00   1    8.00     0    0    0   240   0.0  1   1    7    0   0.000    0.000    0.000  1
 20   1    1  1 0 2    19  16   100  256  256     0.00000   5.52625 2.44147e-004   656  1141   0.60  -4.42   0.09  -16.81   12.53   76.32  1.200  0.000 0 2 0 2  1.000  1.000   3.14    0.00     0.00    0.00   1    8.00     0    0    0   240   0.0  1   1    7    0   0.000    0.000    0.000  1
 21   1    1  1 0 2    20  16   100  256  256     0.00000   5.52625 2.44147e-004   655  1138   0.60  -4.42   0.09  -16.72   12.55   75.12  1.200  0.000 0 2 0 2  1.000  1.000   3.14    0.00     0.00    0.00   1    8.00     0    0    0   240   0.0  1   1    7    0   0.000    0.000    0.000  1
 22   1    1  1 0 2    21  16   100  256  256     0.00000   5.52625 2.44147e-004   846  1470   0.60  -4.42   0.09  -16.63   12.56   73.92  1.200  0.000 0 2 0 2  1.000  1.000   3.14    0.00     0.00    0.00   1    8.00     0    0    0   240   0.0  1   1    7    0   0.000    0.000    0.000  1
 23   1    1  1 0 2    22  16   100  256  256     0.00000   5.52625 2.44147e-004   963  1673   0.60  -4.42   0.09  -16.53   12.57   72.73  1.200  0.000 0 2 0 2  1.000  1.000   3.14    0.00     0.00    0.00   1    8.00     0    0    0   240   0.0  1   1    7    0   0.000    0.000    0.000  1
 24   1    1  1 0 2    23  16   100  256  256     0.00000   5.52625 2.44147e-004  1088  1891   0.60  -4.42   0.09  -16.44   12.59   71.53  1.200  0.000 0 2 0 2  1.000  1.000   3.14    0.00     0.00    0.00   1    8.00     0    0    0   240   0.0  1   1    7    0   0.000    0.000    0.000  1
 25   1    1  1 0 2    24  16   100  256  256     0.00000   5.52625 2.44147e-004  1097  1907   0.60  -4.42   0.09  -16.35   12.60   70.33  1.200  0.000 0 2 0 2  1.000  1.000   3.14    0.00     0.00    0.00   1    8.00     0    0    0   240   0.0  1   1    7    0   0.000    0.000    0.000  1
 26   1    1  1 0 2    25  16   100  256  256     0.00000   5.52625 2.44147e-004  1104  1918   0.60  -4.42   0.09  -16.26   12.61   69.14  1.200  0.000 0 2 0 2  1.000  1.000   3.14    0.00     0.00    0.00   1    8.00     0    0    0   240   0.0  1   1    7    0   0.000    0.000    0.000  1
 27   1    1  1 0 2    26  16   100  256  256     0.00000   5.52625 2.44147e-004  1098  1909   0.60  -4.42   0.09  -16.16   12.62   67.94  1.200  0.000 0 2 0 2  1.000  1.000   3.14    0.00     0.00    0.00   1    8.00     0    0    0   240   0.0  1   1    7    0   0.000    0.000    0.000  1
 28   1    1  1 0 2    27  16   100  256  256     0.00000   5.52625 2.44147e-004  1099  1911   0.60  -4.42   0.09  -16.07   12.64   66.75  1.200  0.000 0 2 0 2  1.000  1.000   3.14    0.00     0.00    0.00   1    8.00     0    0    0   240   0.0  1   1    7    0   0.000    0.000    0.000  1
 29   1    1  1 0 2    28  16   100  256  256     0.00000   5.52625 2.44147e-004  1143  1986   0.60  -4.42   0.09  -15.98   12.65   65.55  1.200  0.000 0 2 0 2  1.000  1.000   3.14    0.00     0.00    0.00   1    8.00     0    0    0   240   0.0  1   1    7    0   0.000    0.000    0.000  1
 30   1    1  1 0 2    29  16   100  256  256     0.00000   5.52625 2.44147e-004  1136  1975   0.60  -4.42   0.09  -15.89   12.66   64.35  1.200  0.000 0 2 0 2  1.000  1.000   3.14    0.00     0.00    0.00   1    8.00     0    0    0   240   0.0  1   1    7    0   0.000    0.000    0.000  1
 31   1    1  1 0 2    30  16   100  256  256     0.00000   5.52625 2.44147e-004  1133  1970   0.60  -4.42   0.09  -15.79   12.67   63.16  1.200  0.000 0 2 0 2  1.000  1.000   3.14    0.00     0.00    0.00   1    8.00     0    0    0   240   0.0  1   1    7    0   0.000    0.000    0.000  1
 32   1    1  1 0 2    31  16   100  256  256     0.00000   5.52625 2.44147e-004  1138  1977   0.60  -4.42   0.09  -15.70   12.69   61.96  1.200  0.000 0 2 0 2  1.000  1.000   3.14    0.00     0.00    0.00   1    8.00     0    0    0   240   0.0  1   1    7    0   0.000    0.000    0.000  1
 33   1    1  1 0 2    32  16   100  256  256     0.00000   5.52625 2.44147e-004  1153  2005   0.60  -4.42   0.09  -15.61   12.70   60.76  1.200  0.000 0 2 0 2  1.000  1.000   3.14    0.00     0.00    0.00   1    8.00     0    0    0   240   0.0  1   1    7    0   0.000    0.000    0.000  1
 34   1    1  1 0 2    33  16   100  256  256     0.00000   5.52625 2.44147e-004  1148  1996   0.60  -4.42   0.09  -15.52   12.71   59.57  1.200  0.000 0 2 0 2  1.000  1.000   3.14    0.00     0.00    0.00   1    8.00     0    0    0   240   0.0  1   1    7    0   0.000    0.000    0.000  1
 35   1    1  1 0 2    34  16   100  256  256     0.00000   5.52625 2.44147e-004  1131  1967   0.60  -4.42   0.09  -15.42   12.72   58.37  1.200  0.000 0 2 0 2  1.000  1.000   3.14    0.00     0.00    0.00   1    8.00     0    0    0   240   0.0  1   1    7    0   0.000    0.000    0.000  1
 36   1    1  1 0 2    35  16   100  256  256     0.00000   5.52625 2.44147e-004  1149  1997   0.60  -4.42   0.09  -15.33   12.74   57.18  1.200  0.000 0 2 0 2  1.000  1.000   3.14    0.00     0.00    0.00   1    8.00     0    0    0   240   0.0  1   1    7    0   0.000    0.000    0.000  1
 37   1    1  1 0 2    36  16   100  256  256     0.00000   5.52625 2.44147e-004  1163  2022   0.60  -4.42   0.09  -15.24   12.75   55.98  1.200  0.000 0 2 0 2  1.000  1.000   3.14    0.00     0.00    0.00   1    8.00     0    0    0   240   0.0  1   1    7    0   0.000    0.000    0.000  1
 38   1    1  1 0 2    37  16   100  256  256     0.00000   5.52625 2.44147e-004  1141  1984   0.60  -4.42   0.09  -15.14   12.76   54.78  1.200  0.000 0 2 0 2  1.000  1.000   3.14    0.00     0.00    0.00   1    8.00     0    0    0   240   0.0  1   1    7    0   0.000    0.000    0.000  1
 39   1    1  1 0 2    38  16   100  256  256     0.00000   5.52625 2.44147e-004  1138  1978   0.60  -4.42   0.09  -15.05   12.78   53.59  1.200  0.000 0 2 0 2  1.000  1.000   3.14    0.00     0.00    0.00   1    8.00     0    0    0   240   0.0  1   1    7    0   0.000    0.000    0.000  1
 40   1    1  1 0 2    39  16   100  256  256     0.00000   5.52625 2.44147e-004  1125  1955   0.60  -4.42   0.09  -14.96   12.79   52.39  1.200  0.000 0 2 0 2  1.000  1.000   3.14    0.00     0.00    0.00   1    8.00     0    0    0   240   0.0  1   1    7    0   0.000    0.000    0.000  1
 41   1    1  1 0 2    40  16   100  256  256     0.00000   5.52625 2.44147e-004  1115  1937   0.60  -4.42   0.09  -14.87   12.80   51.19  1.200  0.000 0 2 0 2  1.000  1.000   3.14    0.00     0.00    0.00   1    8.00     0    0    0   240   0.0  1   1    7    0   0.000    0.000    0.000  1
 42   1    1  1 0 2    41  16   100  256  256     0.00000   5.52625 2.44147e-004  1103  1918   0.60  -4.42   0.09  -14.77   12.81   50.00  1.200  0.000 0 2 0 2  1.000  1.000   3.14    0.00     0.00    0.00   1    8.00     0    0    0   240   0.0  1   1    7    0   0.000    0.000    0.000  1
 43   1    1  1 0 2    42  16   100  256  256     0.00000   5.52625 2.44147e-004  1109  1927   0.60  -4.42   0.09  -14.68   12.83   48.80  1.200  0.000 0 2 0 2  1.000  1.000   3.14    0.00     0.00    0.00   1    8.00     0    0    0   240   0.0  1   1    7    0   0.000    0.000    0.000  1
 44   1    1  1 0 2    43  16   100  256  256     0.00000   5.52625 2.44147e-004  1100  1911   0.60  -4.42   0.09  -14.59   12.84   47.60  1.200  0.000 0 2 0 2  1.000  1.000   3.14    0.00     0.00    0.00   1    8.00     0    0    0   240   0.0  1   1    7    0   0.000    0.000    0.000  1
 45   1    1  1 0 2    44  16   100  256  256     0.00000   5.52625 2.44147e-004  1128  1961   0.60  -4.42   0.09  -14.50   12.85   46.41  1.200  0.000 0 2 0 2  1.000  1.000   3.14    0.00     0.00    0.00   1    8.00     0    0    0   240   0.0  1   1    7    0   0.000    0.000    0.000  1
 46   1    1  1 0 2    45  16   100  256  256     0.00000   5.52625 2.44147e-004  1152  2003   0.60  -4.42   0.09  -14.40   12.86   45.21  1.200  0.000 0 2 0 2  1.000  1.000   3.14    0.00     0.00    0.00   1    8.00     0    0    0   240   0.0  1   1    7    0   0.000    0.000    0.000  1
 47   1    1  1 0 2    46  16   100  256  256     0.00000   5.52625 2.44147e-004  1160  2016   0.60  -4.42   0.09  -14.31   12.88   44.02  1.200  0.000 0 2 0 2  1.000  1.000   3.14    0.00     0.00    0.00   1    8.00     0    0    0   240   0.0  1   1    7    0   0.000    0.000    0.000  1
 48   1    1  1 0 2    47  16   100  256  256     0.00000   5.52625 2.44147e-004  1165  2026   0.60  -4.42   0.09  -14.22   12.89   42.82  1.200  0.000 0 2 0 2  1.000  1.000   3.14    0.00     0.00    0.00   1    8.00     0    0    0   240   0.0  1   1    7    0   0.000    0.000    0.000  1
 49   1    1  1 0 2    48  16   100  256  256     0.00000   5.52625 2.44147e-004  1208  2100   0.60  -4.42   0.09  -14.13   12.90   41.62  1.200  0.000 0 2 0 2  1.000  1.000   3.14    0.00     0.00    0.00   1    8.00     0    0    0   240   0.0  1   1    7    0   0.000    0.000    0.000  1
 50   1    1  1 0 2    49  16   100  256  256     0.00000   5.52625 2.44147e-004  1219  2119   0.60  -4.42   0.09  -14.03   12.91   40.43  1.200  0.000 0 2 0 2  1.000  1.000   3.14    0.00     0.00    0.00   1    8.00     0    0    0   240   0.0  1   1    7    0   0.000    0.000    0.000  1
 51   1    1  1 0 2    50  16   100  256  256     0.00000   5.52625 2.44147e-004  1247  2168   0.60  -4.42   0.09  -13.94   12.93   39.23  1.200  0.000 0 2 0 2  1.000  1.000   3.14    0.00     0.00    0.00   1    8.00     0    0    0   240   0.0  1   1    7    0   0.000    0.000    0.000  1
 52   1    1  1 0 2    51  16   100  256  256     0.00000   5.52625 2.44147e-004  1207  2098   0.60  -4.42   0.09  -13.85   12.94   38.03  1.200  0.000 0 2 0 2  1.000  1.000   3.14    0.00     0.00    0.00   1    8.00     0    0    0   240   0.0  1   1    7    0   0.000    0.000    0.000  1
 53   1    1  1 0 2    52  16   100  256  256     0.00000   5.52625 2.44147e-004  1225  2130   0.60  -4.42   0.09  -13.76   12.95   36.84  1.200  0.000 0 2 0 2  1.000  1.000   3.14    0.00     0.00    0.00   1    8.00     0    0    0   240   0.0  1   1    7    0   0.000    0.000    0.000  1
 54   1    1  1 0 2    53  16   100  256  256     0.00000   5.52625 2.44147e-004  1238  2153   0.60  -4.42   0.09  -13.66   12.97   35.64  1.200  0.000 0 2 0 2  1.000  1.000   3.14    0.00     0.00    0.00   1    8.00     0    0    0   240   0.0  1   1    7    0   0.000    0.000    0.000  1
 55   1    1  1 0 2    54  16   100  256  256     0.00000   5.52625 2.44147e-004  1216  2114   0.60  -4.42   0.09  -13.57   12.98   34.44  1.200  0.000 0 2 0 2  1.000  1.000   3.14    0.00     0.00    0.00   1    8.00     0    0    0   240   0.0  1   1    7    0   0.000    0.000    0.000  1
 56   1    1  1 0 2    55  16   100  256  256     0.00000   5.52625 2.44147e-004  1213  2109   0.60  -4.42   0.09  -13.48   12.99   33.25  1.200  0.000 0 2 0 2  1.000  1.000   3.14    0.00     0.00    0.00   1    8.00     0    0    0   240   0.0  1   1    7    0   0.000    0.000    0.000  1
 57   1    1  1 0 2    56  16   100  256  256     0.00000   5.52625 2.44147e-004  1197  2081   0.60  -4.42   0.09  -13.39   13.00   32.05  1.200  0.000 0 2 0 2  1.000  1.000   3.14    0.00     0.00    0.00   1    8.00     0    0    0   240   0.0  1   1    7    0   0.000    0.000    0.000  1
 58   1    1  1 0 2    57  16   100  256  256     0.00000   5.52625 2.44147e-004  1225  2130   0.60  -4.42   0.09  -13.29   13.02   30.86  1.200  0.000 0 2 0 2  1.000  1.000   3.14    0.00     0.00    0.00   1    8.00     0    0    0   240   0.0  1   1    7    0   0.000    0.000    0.000  1
 59   1    1  1 0 2    58  16   100  256  256     0.00000   5.52625 2.44147e-004  1216  2114   0.60  -4.42   0.09  -13.20   13.03   29.66  1.200  0.000 0 2 0 2  1.000  1.000   3.14    0.00     0.00    0.00   1    8.00     0    0    0   240   0.0  1   1    7    0   0.000    0.000    0.000  1
 60   1    1  1 0 2    59  16   100  256  256     0.00000   5.52625 2.44147e-004  1229  2137   0.60  -4.42   0.09  -13.11   13.04   28.46  1.200  0.000 0 2 0 2  1.000  1.000   3.14    0.00     0.00    0.00   1    8.00     0    0    0   240   0.0  1   1    7    0   0.000    0.000    0.000  1
 61   1    1  1 0 2    60  16   100  256  256     0.00000   5.52625 2.44147e-004  1194  2076   0.60  -4.42   0.09  -13.02   13.05   27.27  1.200  0.000 0 2 0 2  1.000  1.000   3.14    0.00     0.00    0.00   1    8.00     0    0    0   240   0.0  1   1    7    0   0.000    0.000    0.000  1
 62   1    1  1 0 2    61  16   100  256  256     0.00000   5.52625 2.44147e-004  1229  2137   0.60  -4.42   0.09  -12.92   13.07   26.07  1.200  0.000 0 2 0 2  1.000  1.000   3.14    0.00     0.00    0.00   1    8.00     0    0    0   240   0.0  1   1    7    0   0.000    0.000    0.000  1
 63   1    1  1 0 2    62  16   100  256  256     0.00000   5.52625 2.44147e-004  1292  2246   0.60  -4.42   0.09  -12.83   13.08   24.87  1.200  0.000 0 2 0 2  1.000  1.000   3.14    0.00     0.00    0.00   1    8.00     0    0    0   240   0.0  1   1    7    0   0.000    0.000    0.000  1
 64   1    1  1 0 2    63  16   100  256  256     0.00000   5.52625 2.44147e-004  1250  2173   0.60  -4.42   0.09  -12.74   13.09   23.68  1.200  0.000 0 2 0 2  1.000  1.000   3.14    0.00     0.00    0.00   1    8.00     0    0    0   240   0.0  1   1    7    0   0.000    0.000    0.000  1
 65   1    1  1 0 2    64  16   100  256  256     0.00000   5.52625 2.44147e-004  1247  2167   0.60  -4.42   0.09  -12.65   13.10   22.48  1.200  0.000 0 2 0 2  1.000  1.000   3.14    0.00     0.00    0.00   1    8.00     0    0    0   240   0.0  1   1    7    0   0.000    0.000    0.000  1
 66   1    1  1 0 2    65  16   100  256  256     0.00000   5.52625 2.44147e-004  1252  2177   0.60  -4.42   0.09  -12.55   13.12   21.28  1.200  0.000 0 2 0 2  1.000  1.000   3.14    0.00     0.00    0.00   1    8.00     0    0    0   240   0.0  1   1    7    0   0.000    0.000    0.000  1
 67   1    1  1 0 2    66  16   100  256  256     0.00000   5.52625 2.44147e-004  1342  2332   0.60  -4.42   0.09  -12.46   13.13   20.09  1.200  0.000 0 2 0 2  1.000  1.000   3.14    0.00     0.00    0.00   1    8.00     0    0    0   240   0.0  1   1    7    0   0.000    0.000    0.000  1
 68   1    1  1 0 2    67  16   100  256  256     0.00000   5.52625 2.44147e-004  1332  2316   0.60  -4.42   0.09  -12.37   13.14   18.89  1.200  0.000 0 2 0 2  1.000  1.000   3.14    0.00     0.00    0.00   1    8.00     0    0    0   240   0.0  1   1    7    0   0.000    0.000    0.000  1
 69   1    1  1 0 2    68  16   100  256  256     0.00000   5.52625 2.44147e-004  1300  2259   0.60  -4.42   0.09  -12.28   13.15   17.70  1.200  0.000 0 2 0 2  1.000  1.000   3.14    0.00     0.00    0.00   1    8.00     0    0    0   240   0.0  1   1    7    0   0.000    0.000    0.000  1
 70   1    1  1 0 2    69  16   100  256  256     0.00000   5.52625 2.44147e-004  1255  2181   0.60  -4.42   0.09  -12.18   13.17   16.50  1.200  0.000 0 2 0 2  1.000  1.000   3.14    0.00     0.00    0.00   1    8.00     0    0    0   240   0.0  1   1    7    0   0.000    0.000    0.000  1
 71   1    1  1 0 2    70  16   100  256  256     0.00000   5.52625 2.44147e-004  1167  2028   0.60  -4.42   0.09  -12.09   13.18   15.30  1.200  0.000 0 2 0 2  1.000  1.000   3.14    0.00     0.00    0.00   1    8.00     0    0    0   240   0.0  1   1    7    0   0.000    0.000    0.000  1
 72   1    1  1 0 2    71  16   100  256  256     0.00000   5.52625 2.44147e-004  1134  1972   0.60  -4.42   0.09  -12.00   13.19   14.11  1.200  0.000 0 2 0 2  1.000  1.000   3.14    0.00     0.00    0.00   1    8.00     0    0    0   240   0.0  1   1    7    0   0.000    0.000    0.000  1
 73   1    1  1 0 2    72  16   100  256  256     0.00000   5.52625 2.44147e-004  1102  1916   0.60  -4.42   0.09  -11.91   13.21   12.91  1.200  0.000 0 2 0 2  1.000  1.000   3.14    0.00     0.00    0.00   1    8.00     0    0    0   240   0.0  1   1    7    0   0.000    0.000    0.000  1
 74   1    1  1 0 2    73  16   100  256  256     0.00000   5.52625 2.44147e-004  1148  1995   0.60  -4.42   0.09  -11.81   13.22   11.71  1.200  0.000 0 2 0 2  1.000  1.000   3.14    0.00     0.00    0.00   1    8.00     0    0    0   240   0.0  1   1    7    0   0.000    0.000    0.000  1
 75   1    1  1 0 2    74  16   100  256  256     0.00000   5.52625 2.44147e-004  1055  1835   0.60  -4.42   0.09  -11.72   13.23   10.52  1.200  0.000 0 2 0 2  1.000  1.000   3.14    0.00     0.00    0.00   1    8.00     0    0    0   240   0.0  1   1    7    0   0.000    0.000    0.000  1
 76   1    1  1 0 2    75  16   100  256  256     0.00000   5.52625 2.44147e-004  1039  1805   0.60  -4.42   0.09  -11.63   13.24    9.32  1.200  0.000 0 2 0 2  1.000  1.000   3.14    0.00     0.00    0.00   1    8.00     0    0    0   240   0.0  1   1    7    0   0.000    0.000    0.000  1
 77   1    1  1 0 2    76  16   100  256  256     0.00000   5.52625 2.44147e-004  1016  1766   0.60  -4.42   0.09  -11.54   13.26    8.12  1.200  0.000 0 2 0 2  1.000  1.000   3.14    0.00     0.00    0.00   1    8.00     0    0    0   240   0.0  1   1    7    0   0.000    0.000    0.000  1
 78   1    1  1 0 2    77  16   100  256  256     0.00000   5.52625 2.44147e-004  1055  1834   0.60  -4.42   0.09  -11.44   13.27    6.93  1.200  0.000 0 2 0 2  1.000  1.000   3.14    0.00     0.00    0.00   1    8.00     0    0    0   240   0.0  1   1    7    0   0.000    0.000    0.000  1
 79   1    1  1 0 2    78  16   100  256  256     0.00000   5.52625 2.44147e-004  1046  1817   0.60  -4.42   0.09  -11.35   13.28    5.73  1.200  0.000 0 2 0 2  1.000  1.000   3.14    0.00     0.00    0.00   1    8.00     0    0    0   240   0.0  1   1    7    0   0.000    0.000    0.000  1
 80   1    1  1 0 2    79  16   100  256  256     0.00000   5.52625 2.44147e-004  1050  1825   0.60  -4.42   0.09  -11.26   13.29    4.54  1.200  0.000 0 2 0 2  1.000  1.000   3.14    0.00     0.00    0.00   1    8.00     0    0    0   240   0.0  1   1    7    0   0.000    0.000    0.000  1
 81   1    1  1 0 2    80  16   100  256  256     0.00000   5.52625 2.44147e-004  1031  1792   0.60  -4.42   0.09  -11.16   13.31    3.34  1.200  0.000 0 2 0 2  1.000  1.000   3.14    0.00     0.00    0.00   1    8.00     0    0    0   240   0.0  1   1    7    0   0.000    0.000    0.000  1
 82   1    1  1 0 2    81  16   100  256  256     0.00000   5.52625 2.44147e-004  1025  1781   0.60  -4.42   0.09  -11.07   13.32    2.14  1.200  0.000 0 2 0 2  1.000  1.000   3.14    0.00     0.00    0.00   1    8.00     0    0    0   240   0.0  1   1    7    0   0.000    0.000    0.000  1
 83   1    1  1 0 2    82  16   100  256  256     0.00000   5.52625 2.44147e-004  1041  1810   0.60  -4.42   0.09  -10.98   13.33    0.95  1.200  0.000 0 2 0 2  1.000  1.000   3.14    0.00     0.00    0.00   1    8.00     0    0    0   240   0.0  1   1    7    0   0.000    0.000    0.000  1
 84   1    1  1 0 2    83  16   100  256  256     0.00000   5.52625 2.44147e-004  1042  1812   0.60  -4.42   0.09  -10.89   13.34   -0.25  1.200  0.000 0 2 0 2  1.000  1.000   3.14    0.00     0.00    0.00   1    8.00     0    0    0   240   0.0  1   1    7    0   0.000    0.000    0.000  1
