# === DATA DESCRIPTION FILE ======================================================
#
# CAUTION - Investigational device.
# Limited by Federal Law to investigational use.
#
#
# CLINICAL TRYOUT             Research image export tool     V4.2
#
# === GENERAL INFORMATION ========================================================
#
.    Protocol name                      :   WIP MPrageADNIsag SENSE
.    Series Type                        :   Image   MRSERIES
.    Acquisition nr                     :   3
.    Reconstruction nr                  :   1
.    Scan Duration [sec]                :   356
.    Max. number of cardiac phases      :   1
.    Max. number of echoes              :   1
.    Max. number of slices/locations    :   170
.    Max. number of dynamics            :   1
.    Max. number of mixes               :   1
.    Patient position                   :   Head First Supine
.    Preparation direction              :   Anterior-Posterior
.    Technique                          :   T1TFE
.    Scan resolution  (x, y)            :   256  256
.    Scan mode                          :   3D
.    Repetition time [ms]               :   6.768  
.    FOV (ap,fh,rl) [mm]                :   240.000  256.000  204.000
.    Water Fat shift [pixels]           :   1.802
.    Angulation midslice(ap,fh,rl)[degr]:   -2.883  0.481  -0.177
.    Off Centre midslice(ap,fh,rl) [mm] :   -24.576  -17.964  -2.166
.    Flow compensation <0=no 1=yes> ?   :   0
.    Presaturation     <0=no 1=yes> ?   :   0
.    Phase encoding velocity [cm/sec]   :   0.000000  0.000000  0.000000
.    MTC               <0=no 1=yes> ?   :   0
.    SPIR              <0=no 1=yes> ?   :   0
.    EPI factor        <0,1=no EPI>     :   1
.    Dynamic scan      <0=no 1=yes> ?   :   0
.    Diffusion         <0=no 1=yes> ?   :   0
.    Diffusion echo time [ms]           :   0.0000
.    Max. number of diffusion values    :   1
.    Max. number of gradient orients    :   1
.    Number of label types   <0=no ASL> :   0
#
# === PIXEL VALUES =============================================================
#  PV = pixel value in REC file, FP = floating point value, DV = displayed value on console
#  RS = rescale slope,           RI = rescale intercept,    SS = scale slope
#  DV = PV * RS + RI             FP = DV / (RS * SS)
#
# === IMAGE INFORMATION DEFINITION =============================================
#  The rest of this file contains ONE line per image, this line contains the following information:
#
#  slice number                             (integer)
#  echo number                              (integer)
#  dynamic scan number                      (integer)
#  cardiac phase number                     (integer)
#  image_type_mr                            (integer)
#  scanning sequence                        (integer)
#  index in REC file (in images)            (integer)
#  image pixel size (in bits)               (integer)
#  scan percentage                          (integer)
#  recon resolution (x y)                   (2*integer)
#  rescale intercept                        (float)
#  rescale slope                            (float)
#  scale slope                              (float)
#  window center                            (integer)
#  window width                             (integer)
#  image angulation (ap,fh,rl in degrees )  (3*float)
#  image offcentre (ap,fh,rl in mm )        (3*float)
#  slice thickness (in mm )                 (float)
#  slice gap (in mm )                       (float)
#  image_display_orientation                (integer)
#  slice orientation ( TRA/SAG/COR )        (integer)
#  fmri_status_indication                   (integer)
#  image_type_ed_es  (end diast/end syst)   (integer)
#  pixel spacing (x,y) (in mm)              (2*float)
#  echo_time                                (float)
#  dyn_scan_begin_time                      (float)
#  trigger_time                             (float)
#  diffusion_b_factor                       (float)
#  number of averages                       (integer)
#  image_flip_angle (in degrees)            (float)
#  cardiac frequency   (bpm)                (integer)
#  minimum RR-interval (in ms)              (integer)
#  maximum RR-interval (in ms)              (integer)
#  TURBO factor  <0=no turbo>               (integer)
#  Inversion delay (in ms)                  (float)
#  diffusion b value number    (imagekey!)  (integer)
#  gradient orientation number (imagekey!)  (integer)
#  contrast type                            (string)
#  diffusion anisotropy type                (string)
#  diffusion (ap, fh, rl)                   (3*float)
#  label type (ASL)            (imagekey!)  (integer)
#
# === IMAGE INFORMATION ==========================================================
#  sl ec  dyn ph ty    idx pix scan% rec size                (re)scale              window        angulation              offcentre        thick   gap   info      spacing     echo     dtime   ttime    diff  avg  flip    freq   RR-int  turbo delay b grad cont anis         diffusion       L.ty

  1   1    1  1 0 2     0  16   100  256  256     0.00000   6.83468 2.42858e-004    27    46  -2.88   0.48  -0.18  -23.71  -12.87   99.10  1.200  0.000 0 2 0 2  1.000  1.000   3.13    0.00     0.00    0.00   1    8.00     0    0    0   240   0.0  1   1    7    0   0.000    0.000    0.000  1
  2   1    1  1 0 2     1  16   100  256  256     0.00000   6.83468 2.42858e-004    24    41  -2.88   0.48  -0.18  -23.72  -12.93   97.90  1.200  0.000 0 2 0 2  1.000  1.000   3.13    0.00     0.00    0.00   1    8.00     0    0    0   240   0.0  1   1    7    0   0.000    0.000    0.000  1
  3   1    1  1 0 2     2  16   100  256  256     0.00000   6.83468 2.42858e-004    25    43  -2.88   0.48  -0.18  -23.73  -12.99   96.71  1.200  0.000 0 2 0 2  1.000  1.000   3.13    0.00     0.00    0.00   1    8.00     0    0    0   240   0.0  1   1    7    0   0.000    0.000    0.000  1
  4   1    1  1 0 2     3  16   100  256  256     0.00000   6.83468 2.42858e-004    26    45  -2.88   0.48  -0.18  -23.74  -13.05   95.51  1.200  0.000 0 2 0 2  1.000  1.000   3.13    0.00     0.00    0.00   1    8.00     0    0    0   240   0.0  1   1    7    0   0.000    0.000    0.000  1
  5   1    1  1 0 2     4  16   100  256  256     0.00000   6.83468 2.42858e-004    26    45  -2.88   0.48  -0.18  -23.75  -13.11   94.31  1.200  0.000 0 2 0 2  1.000  1.000   3.13    0.00     0.00    0.00   1    8.00     0    0    0   240   0.0  1   1    7    0   0.000    0.000    0.000  1
  6   1    1  1 0 2     5  16   100  256  256     0.00000   6.83468 2.42858e-004    26    45  -2.88   0.48  -0.18  -23.76  -13.17   93.11  1.200  0.000 0 2 0 2  1.000  1.000   3.13    0.00     0.00    0.00   1    8.00     0    0    0   240   0.0  1   1    7    0   0.000    0.000    0.000  1
  7   1    1  1 0 2     6  16   100  256  256     0.00000   6.83468 2.42858e-004    27    47  -2.88   0.48  -0.18  -23.77  -13.23   91.91  1.200  0.000 0 2 0 2  1.000  1.000   3.13    0.00     0.00    0.00   1    8.00     0    0    0   240   0.0  1   1    7    0   0.000    0.000    0.000  1
  8   1    1  1 0 2     7  16   100  256  256     0.00000   6.83468 2.42858e-004    30    53  -2.88   0.48  -0.18  -23.78  -13.29   90.71  1.200  0.000 0 2 0 2  1.000  1.000   3.13    0.00     0.00    0.00   1    8.00     0    0    0   240   0.0  1   1    7    0   0.000    0.000    0.000  1
  9   1    1  1 0 2     8  16   100  256  256     0.00000   6.83468 2.42858e-004    34    60  -2.88   0.48  -0.18  -23.79  -13.35   89.51  1.200  0.000 0 2 0 2  1.000  1.000   3.13    0.00     0.00    0.00   1    8.00     0    0    0   240   0.0  1   1    7    0   0.000    0.000    0.000  1
 10   1    1  1 0 2     9  16   100  256  256     0.00000   6.83468 2.42858e-004    37    65  -2.88   0.48  -0.18  -23.80  -13.41   88.32  1.200  0.000 0 2 0 2  1.000  1.000   3.13    0.00     0.00    0.00   1    8.00     0    0    0   240   0.0  1   1    7    0   0.000    0.000    0.000  1
 11   1    1  1 0 2    10  16   100  256  256     0.00000   6.83468 2.42858e-004    39    68  -2.88   0.48  -0.18  -23.81  -13.47   87.12  1.200  0.000 0 2 0 2  1.000  1.000   3.13    0.00     0.00    0.00   1    8.00     0    0    0   240   0.0  1   1    7    0   0.000    0.000    0.000  1
 12   1    1  1 0 2    11  16   100  256  256     0.00000   6.83468 2.42858e-004    45    78  -2.88   0.48  -0.18  -23.82  -13.53   85.92  1.200  0.000 0 2 0 2  1.000  1.000   3.13    0.00     0.00    0.00   1    8.00     0    0    0   240   0.0  1   1    7    0   0.000    0.000    0.000  1
 13   1    1  1 0 2    12  16   100  256  256     0.00000   6.83468 2.42858e-004   192   333  -2.88   0.48  -0.18  -23.83  -13.59   84.72  1.200  0.000 0 2 0 2  1.000  1.000   3.13    0.00     0.00    0.00   1    8.00     0    0    0   240   0.0  1   1    7    0   0.000    0.000    0.000  1
 14   1    1  1 0 2    13  16   100  256  256     0.00000   6.83468 2.42858e-004   433   752  -2.88   0.48  -0.18  -23.84  -13.65   83.52  1.200  0.000 0 2 0 2  1.000  1.000   3.13    0.00     0.00    0.00   1    8.00     0    0    0   240   0.0  1   1    7    0   0.000    0.000    0.000  1
 15   1    1  1 0 2    14  16   100  256  256     0.00000   6.83468 2.42858e-004   468   814  -2.88   0.48  -0.18  -23.85  -13.71   82.32  1.200  0.000 0 2 0 2  1.000  1.000   3.13    0.00     0.00    0.00   1    8.00     0    0    0   240   0.0  1   1    7    0   0.000    0.000    0.000  1
 16   1    1  1 0 2    15  16   100  256  256     0.00000   6.83468 2.42858e-004   549   954  -2.88   0.48  -0.18  -23.86  -13.77   81.13  1.200  0.000 0 2 0 2  1.000  1.000   3.13    0.00     0.00    0.00   1    8.00     0    0    0   240   0.0  1   1    7    0   0.000    0.000    0.000  1
 17   1    1  1 0 2    16  16   100  256  256     0.00000   6.83468 2.42858e-004   730  1269  -2.88   0.48  -0.18  -23.87  -13.83   79.93  1.200  0.000 0 2 0 2  1.000  1.000   3.13    0.00     0.00    0.00   1    8.00     0    0    0   240   0.0  1   1    7    0   0.000    0.000    0.000  1
 18   1    1  1 0 2    17  16   100  256  256     0.00000   6.83468 2.42858e-004   777  1350  -2.88   0.48  -0.18  -23.88  -13.89   78.73  1.200  0.000 0 2 0 2  1.000  1.000   3.13    0.00     0.00    0.00   1    8.00     0    0    0   240   0.0  1   1    7    0   0.000    0.000    0.000  1
 19   1    1  1 0 2    18  16   100  256  256     0.00000   6.83468 2.42858e-004   756  1314  -2.88   0.48  -0.18  -23.89  -13.95   77.53  1.200  0.000 0 2 0 2  1.000  1.000   3.13    0.00     0.00    0.00   1    8.00     0    0    0   240   0.0  1   1    7    0   0.000    0.000    0.000  1
 20   1    1  1 0 2    19  16   100  256  256     0.00000   6.83468 2.42858e-004   763  1327  -2.88   0.48  -0.18  -23.90  -14.01   76.33  1.200  0.000 0 2 0 2  1.000  1.000   3.13    0.00     0.00    0.00   1    8.00     0    0    0   240   0.0  1   1    7    0   0.000    0.000    0.000  1
 21   1    1  1 0 2    20  16   100  256  256     0.00000   6.83468 2.42858e-004   806  1401  -2.88   0.48  -0.18  -23.91  -14.07   75.13  1.200  0.000 0 2 0 2  1.000  1.000   3.13    0.00     0.00    0.00   1    8.00     0    0    0   240   0.0  1   1    7    0   0.000    0.000    0.000  1
 22   1    1  1 0 2    21  16   100  256  256     0.00000   6.83468 2.42858e-004   855  1487  -2.88   0.48  -0.18  -23.92  -14.13   73.93  1.200  0.000 0 2 0 2  1.000  1.000   3.13    0.00     0.00    0.00   1    8.00     0    0    0   240   0.0  1   1    7    0   0.000    0.000    0.000  1
 23   1    1  1 0 2    22  16   100  256  256     0.00000   6.83468 2.42858e-004   939  1632  -2.88   0.48  -0.18  -23.93  -14.19   72.74  1.200  0.000 0 2 0 2  1.000  1.000   3.13    0.00     0.00    0.00   1    8.00     0    0    0   240   0.0  1   1    7    0   0.000    0.000    0.000  1
 24   1    1  1 0 2    23  16   100  256  256     0.00000   6.83468 2.42858e-004   996  1731  -2.88   0.48  -0.18  -23.95  -14.25   71.54  1.200  0.000 0 2 0 2  1.000  1.000   3.13    0.00     0.00    0.00   1    8.00     0    0    0   240   0.0  1   1    7    0   0.000    0.000    0.000  1
 25   1    1  1 0 2    24  16   100  256  256     0.00000   6.83468 2.42858e-004  1048  1822  -2.88   0.48  -0.18  -23.96  -14.31   70.34  1.200  0.000 0 2 0 2  1.000  1.000   3.13    0.00     0.00    0.00   1    8.00     0    0    0   240   0.0  1   1    7    0   0.000    0.000    0.000  1
 26   1    1  1 0 2    25  16   100  256  256     0.00000   6.83468 2.42858e-004  1108  1925  -2.88   0.48  -0.18  -23.97  -14.37   69.14  1.200  0.000 0 2 0 2  1.000  1.000   3.13    0.00     0.00    0.00   1    8.00     0    0    0   240   0.0  1   1    7    0   0.000    0.000    0.000  1
 27   1    1  1 0 2    26  16   100  256  256     0.00000   6.83468 2.42858e-004  1158  2013  -2.88   0.48  -0.18  -23.98  -14.43   67.94  1.200  0.000 0 2 0 2  1.000  1.000   3.13    0.00     0.00    0.00   1    8.00     0    0    0   240   0.0  1   1    7    0   0.000    0.000    0.000  1
 28   1    1  1 0 2    27  16   100  256  256     0.00000   6.83468 2.42858e-004  1170  2034  -2.88   0.48  -0.18  -23.99  -14.50   66.74  1.200  0.000 0 2 0 2  1.000  1.000   3.13    0.00     0.00    0.00   1    8.00     0    0    0   240   0.0  1   1    7    0   0.000    0.000    0.000  1
 29   1    1  1 0 2    28  16   100  256  256     0.00000   6.83468 2.42858e-004  1199  2084  -2.88   0.48  -0.18  -24.00  -14.56   65.55  1.200  0.000 0 2 0 2  1.000  1.000   3.13    0.00     0.00    0.00   1    8.00     0    0    0   240   0.0  1   1    7    0   0.000    0.000    0.000  1
 30   1    1  1 0 2    29  16   100  256  256     0.00000   6.83468 2.42858e-004  1183  2057  -2.88   0.48  -0.18  -24.01  -14.62   64.35  1.200  0.000 0 2 0 2  1.000  1.000   3.13    0.00     0.00    0.00   1    8.00     0    0    0   240   0.0  1   1    7    0   0.000    0.000    0.000  1
 31   1    1  1 0 2    30  16   100  256  256     0.00000   6.83468 2.42858e-004  1204  2093  -2.88   0.48  -0.18  -24.02  -14.68   63.15  1.200  0.000 0 2 0 2  1.000  1.000   3.13    0.00     0.00    0.00   1    8.00     0    0    0   240   0.0  1   1    7    0   0.000    0.000    0.000  1
 32   1    1  1 0 2    31  16   100  256  256     0.00000   6.83468 2.42858e-004  1200  2086  -2.88   0.48  -0.18  -24.03  -14.74   61.95  1.200  0.000 0 2 0 2  1.000  1.000   3.13    0.00     0.00    0.00   1    8.00     0    0    0   240   0.0  1   1    7    0   0.000    0.000    0.000  1
 33   1    1  1 0 2    32  16   100  256  256     0.00000   6.83468 2.42858e-004  1204  2093  -2.88   0.48  -0.18  -24.04  -14.80   60.75  1.200  0.000 0 2 0 2  1.000  1.000   3.13    0.00     0.00    0.00   1    8.00     0    0    0   240   0.0  1   1    7    0   0.000    0.000    0.000  1
 34   1    1  1 0 2    33  16   100  256  256     0.00000   6.83468 2.42858e-004  1202  2090  -2.88   0.48  -0.18  -24.05  -14.86   59.55  1.200  0.000 0 2 0 2  1.000  1.000   3.13    0.00     0.00    0.00   1    8.00     0    0    0   240   0.0  1   1    7    0   0.000    0.000    0.000  1
 35   1    1  1 0 2    34  16   100  256  256     0.00000   6.83468 2.42858e-004  1230  2138  -2.88   0.48  -0.18  -24.06  -14.92   58.35  1.200  0.000 0 2 0 2  1.000  1.000   3.13    0.00     0.00    0.00   1    8.00     0    0    0   240   0.0  1   1    7    0   0.000    0.000    0.000  1
 36   1    1  1 0 2    35  16   100  256  256     0.00000   6.83468 2.42858e-004  1252  2177  -2.88   0.48  -0.18  -24.07  -14.98   57.16  1.200  0.000 0 2 0 2  1.000  1.000   3.13    0.00     0.00    0.00   1    8.00     0    0    0   240   0.0  1   1    7    0   0.000    0.000    0.000  1
 37   1    1  1 0 2    36  16   100  256  256     0.00000   6.83468 2.42858e-004  1256  2184  -2.88   0.48  -0.18  -24.08  -15.04   55.96  1.200  0.000 0 2 0 2  1.000  1.000   3.13    0.00     0.00    0.00   1    8.00     0    0    0   240   0.0  1   1    7    0   0.000    0.000    0.000  1
 38   1    1  1 0 2    37  16   100  256  256     0.00000   6.83468 2.42858e-004  1274  2214  -2.88   0.48  -0.18  -24.09  -15.10   54.76  1.200  0.000 0 2 0 2  1.000  1.000   3.13    0.00     0.00    0.00   1    8.00     0    0    0   240   0.0  1   1    7    0   0.000    0.000    0.000  1
 39   1    1  1 0 2    38  16   100  256  256     0.00000   6.83468 2.42858e-004  1268  2204  -2.88   0.48  -0.18  -24.10  -15.16   53.56  1.200  0.000 0 2 0 2  1.000  1.000   3.13    0.00     0.00    0.00   1    8.00     0    0    0   240   0.0  1   1    7    0   0.000    0.000    0.000  1
 40   1    1  1 0 2    39  16   100  256  256     0.00000   6.83468 2.42858e-004  1258  2187  -2.88   0.48  -0.18  -24.11  -15.22   52.36  1.200  0.000 0 2 0 2  1.000  1.000   3.13    0.00     0.00    0.00   1    8.00     0    0    0   240   0.0  1   1    7    0   0.000    0.000    0.000  1
 41   1    1  1 0 2    40  16   100  256  256     0.00000   6.83468 2.42858e-004  1274  2214  -2.88   0.48  -0.18  -24.12  -15.28   51.16  1.200  0.000 0 2 0 2  1.000  1.000   3.13    0.00     0.00    0.00   1    8.00     0    0    0   240   0.0  1   1    7    0   0.000    0.000    0.000  1
 42   1    1  1 0 2    41  16   100  256  256     0.00000   6.83468 2.42858e-004  1243  2160  -2.88   0.48  -0.18  -24.13  -15.34   49.97  1.200  0.000 0 2 0 2  1.000  1.000   3.13    0.00     0.00    0.00   1    8.00     0    0    0   240   0.0  1   1    7    0   0.000    0.000    0.000  1
 43   1    1  1 0 2    42  16   100  256  256     0.00000   6.83468 2.42858e-004  1151  2000  -2.88   0.48  -0.18  -24.14  -15.40   48.77  1.200  0.000 0 2 0 2  1.000  1.000   3.13    0.00     0.00    0.00   1    8.00     0    0    0   240   0.0  1   1    7    0   0.000    0.000    0.000  1
 44   1    1  1 0 2    43  16   100  256  256     0.00000   6.83468 2.42858e-004  1116  1940  -2.88   0.48  -0.18  -24.15  -15.46   47.57  1.200  0.000 0 2 0 2  1.000  1.000   3.13    0.00     0.00    0.00   1    8.00     0    0    0   240   0.0  1   1    7    0   0.000    0.000    0.000  1
 45   1    1  1 0 2    44  16   100  256  256     0.00000   6.83468 2.42858e-004  1111  1931  -2.88   0.48  -0.18  -24.16  -15.52   46.37  1.200  0.000 0 2 0 2  1.000  1.000   3.13    0.00     0.00    0.00   1    8.00     0    0    0   240   0.0  1   1    7    0   0.000    0.000    0.000  1
 46   1    1  1 0 2    45  16   100  256  256     0.00000   6.83468 2.42858e-004  1095  1904  -2.88   0.48  -0.18  -24.17  -15.58   45.17  1.200  0.000 0 2 0 2  1.000  1.000   3.13    0.00     0.00    0.00   1    8.00     0    0    0   240   0.0  1   1    7    0   0.000    0.000    0.000  1
 47   1    1  1 0 2    46  16   100  256  256     0.00000   6.83468 2.42858e-004  1069  1859  -2.88   0.48  -0.18  -24.18  -15.64   43.97  1.200  0.000 0 2 0 2  1.000  1.000   3.13    0.00     0.00    0.00   1    8.00     0    0    0   240   0.0  1   1    7    0   0.000    0.000    0.000  1
 48   1    1  1 0 2    47  16   100  256  256     0.00000   6.83468 2.42858e-004  1086  1887  -2.88   0.48  -0.18  -24.19  -15.70   42.78  1.200  0.000 0 2 0 2  1.000  1.000   3.13    0.00     0.00    0.00   1    8.00     0    0    0   240   0.0  1   1    7    0   0.000    0.000    0.000  1
 49   1    1  1 0 2    48  16   100  256  256     0.00000   6.83468 2.42858e-004  1086  1888  -2.88   0.48  -0.18  -24.20  -15.76   41.58  1.200  0.000 0 2 0 2  1.000  1.000   3.13    0.00     0.00    0.00   1    8.00     0    0    0   240   0.0  1   1    7    0   0.000    0.000    0.000  1
 50   1    1  1 0 2    49  16   100  256  256     0.00000   6.83468 2.42858e-004  1117  1941  -2.88   0.48  -0.18  -24.21  -15.82   40.38  1.200  0.000 0 2 0 2  1.000  1.000   3.13    0.00     0.00    0.00   1    8.00     0    0    0   240   0.0  1   1    7    0   0.000    0.000    0.000  1
 51   1    1  1 0 2    50  16   100  256  256     0.00000   6.83468 2.42858e-004  1144  1989  -2.88   0.48  -0.18  -24.22  -15.88   39.18  1.200  0.000 0 2 0 2  1.000  1.000   3.13    0.00     0.00    0.00   1    8.00     0    0    0   240   0.0  1   1    7    0   0.000    0.000    0.000  1
 52   1    1  1 0 2    51  16   100  256  256     0.00000   6.83468 2.42858e-004  1125  1956  -2.88   0.48  -0.18  -24.23  -15.94   37.98  1.200  0.000 0 2 0 2  1.000  1.000   3.13    0.00     0.00    0.00   1    8.00     0    0    0   240   0.0  1   1    7    0   0.000    0.000    0.000  1
 53   1    1  1 0 2    52  16   100  256  256     0.00000   6.83468 2.42858e-004  1156  2010  -2.88   0.48  -0.18  -24.24  -16.00   36.78  1.200  0.000 0 2 0 2  1.000  1.000   3.13    0.00     0.00    0.00   1    8.00     0    0    0   240   0.0  1   1    7    0   0.000    0.000    0.000  1
 54   1    1  1 0 2    53  16   100  256  256     0.00000   6.83468 2.42858e-004  1259  2188  -2.88   0.48  -0.18  -24.25  -16.06   35.58  1.200  0.000 0 2 0 2  1.000  1.000   3.13    0.00     0.00    0.00   1    8.00     0    0    0   240   0.0  1   1    7    0   0.000    0.000    0.000  1
 55   1    1  1 0 2    54  16   100  256  256     0.00000   6.83468 2.42858e-004  1273  2212  -2.88   0.48  -0.18  -24.26  -16.12   34.39  1.200  0.000 0 2 0 2  1.000  1.000   3.13    0.00     0.00    0.00   1    8.00     0    0    0   240   0.0  1   1    7    0   0.000    0.000    0.000  1
 56   1    1  1 0 2    55  16   100  256  256     0.00000   6.83468 2.42858e-004  1309  2275  -2.88   0.48  -0.18  -24.27  -16.18   33.19  1.200  0.000 0 2 0 2  1.000  1.000   3.13    0.00     0.00    0.00   1    8.00     0    0    0   240   0.0  1   1    7    0   0.000    0.000    0.000  1
 57   1    1  1 0 2    56  16   100  256  256     0.00000   6.83468 2.42858e-004  1314  2284  -2.88   0.48  -0.18  -24.28  -16.24   31.99  1.200  0.000 0 2 0 2  1.000  1.000   3.13    0.00     0.00    0.00   1    8.00     0    0    0   240   0.0  1   1    7    0   0.000    0.000    0.000  1
 58   1    1  1 0 2    57  16   100  256  256     0.00000   6.83468 2.42858e-004  1359  2362  -2.88   0.48  -0.18  -24.29  -16.30   30.79  1.200  0.000 0 2 0 2  1.000  1.000   3.13    0.00     0.00    0.00   1    8.00     0    0    0   240   0.0  1   1    7    0   0.000    0.000    0.000  1
 59   1    1  1 0 2    58  16   100  256  256     0.00000   6.83468 2.42858e-004  1389  2414  -2.88   0.48  -0.18  -24.30  -16.37   29.59  1.200  0.000 0 2 0 2  1.000  1.000   3.13    0.00     0.00    0.00   1    8.00     0    0    0   240   0.0  1   1    7    0   0.000    0.000    0.000  1
 60   1    1  1 0 2    59  16   100  256  256     0.00000   6.83468 2.42858e-004  1394  2423  -2.88   0.48  -0.18  -24.31  -16.43   28.39  1.200  0.000 0 2 0 2  1.000  1.000   3.13    0.00     0.00    0.00   1    8.00     0    0    0   240   0.0  1   1    7    0   0.000    0.000    0.000  1
 61   1    1  1 0 2    60  16   100  256  256     0.00000   6.83468 2.42858e-004  1390  2416  -2.88   0.48  -0.18  -24.32  -16.49   27.20  1.200  0.000 0 2 0 2  1.000  1.000   3.13    0.00     0.00    0.00   1    8.00     0    0    0   240   0.0  1   1    7    0   0.000    0.000    0.000  1
 62   1    1  1 0 2    61  16   100  256  256     0.00000   6.83468 2.42858e-004  1420  2469  -2.88   0.48  -0.18  -24.34  -16.55   26.00  1.200  0.000 0 2 0 2  1.000  1.000   3.13    0.00     0.00    0.00   1    8.00     0    0    0   240   0.0  1   1    7    0   0.000    0.000    0.000  1
 63   1    1  1 0 2    62  16   100  256  256     0.00000   6.83468 2.42858e-004  1431  2488  -2.88   0.48  -0.18  -24.35  -16.61   24.80  1.200  0.000 0 2 0 2  1.000  1.000   3.13    0.00     0.00    0.00   1    8.00     0    0    0   240   0.0  1   1    7    0   0.000    0.000    0.000  1
 64   1    1  1 0 2    63  16   100  256  256     0.00000   6.83468 2.42858e-004  1489  2589  -2.88   0.48  -0.18  -24.36  -16.67   23.60  1.200  0.000 0 2 0 2  1.000  1.000   3.13    0.00     0.00    0.00   1    8.00     0    0    0   240   0.0  1   1    7    0   0.000    0.000    0.000  1
 65   1    1  1 0 2    64  16   100  256  256     0.00000   6.83468 2.42858e-004  1660  2885  -2.88   0.48  -0.18  -24.37  -16.73   22.40  1.200  0.000 0 2 0 2  1.000  1.000   3.13    0.00     0.00    0.00   1    8.00     0    0    0   240   0.0  1   1    7    0   0.000    0.000    0.000  1
 66   1    1  1 0 2    65  16   100  256  256     0.00000   6.83468 2.42858e-004  1868  3248  -2.88   0.48  -0.18  -24.38  -16.79   21.20  1.200  0.000 0 2 0 2  1.000  1.000   3.13    0.00     0.00    0.00   1    8.00     0    0    0   240   0.0  1   1    7    0   0.000    0.000    0.000  1
 67   1    1  1 0 2    66  16   100  256  256     0.00000   6.83468 2.42858e-004  1823  3169  -2.88   0.48  -0.18  -24.39  -16.85   20.00  1.200  0.000 0 2 0 2  1.000  1.000   3.13    0.00     0.00    0.00   1    8.00     0    0    0   240   0.0  1   1    7    0   0.000    0.000    0.000  1
 68   1    1  1 0 2    67  16   100  256  256     0.00000   6.83468 2.42858e-004  1396  2426  -2.88   0.48  -0.18  -24.40  -16.91   18.81  1.200  0.000 0 2 0 2  1.000  1.000   3.13    0.00     0.00    0.00   1    8.00     0    0    0   240   0.0  1   1    7    0   0.000    0.000    0.000  1
 69   1    1  1 0 2    68  16   100  256  256     0.00000   6.83468 2.42858e-004  1277  2219  -2.88   0.48  -0.18  -24.41  -16.97   17.61  1.200  0.000 0 2 0 2  1.000  1.000   3.13    0.00     0.00    0.00   1    8.00     0    0    0   240   0.0  1   1    7    0   0.000    0.000    0.000  1
 70   1    1  1 0 2    69  16   100  256  256     0.00000   6.83468 2.42858e-004  1270  2208  -2.88   0.48  -0.18  -24.42  -17.03   16.41  1.200  0.000 0 2 0 2  1.000  1.000   3.13    0.00     0.00    0.00   1    8.00     0    0    0   240   0.0  1   1    7    0   0.000    0.000    0.000  1
 71   1    1  1 0 2    70  16   100  256  256     0.00000   6.83468 2.42858e-004  1258  2187  -2.88   0.48  -0.18  -24.43  -17.09   15.21  1.200  0.000 0 2 0 2  1.000  1.000   3.13    0.00     0.00    0.00   1    8.00     0    0    0   240   0.0  1   1    7    0   0.000    0.000    0.000  1
 72   1    1  1 0 2    71  16   100  256  256     0.00000   6.83468 2.42858e-004  1258  2186  -2.88   0.48  -0.18  -24.44  -17.15   14.01  1.200  0.000 0 2 0 2  1.000  1.000   3.13    0.00     0.00    0.00   1    8.00     0    0    0   240   0.0  1   1    7    0   0.000    0.000    0.000  1
 73   1    1  1 0 2    72  16   100  256  256     0.00000   6.83468 2.42858e-004  1259  2188  -2.88   0.48  -0.18  -24.45  -17.21   12.81  1.200  0.000 0 2 0 2  1.000  1.000   3.13    0.00     0.00    0.00   1    8.00     0    0    0   240   0.0  1   1    7    0   0.000    0.000    0.000  1
 74   1    1  1 0 2    73  16   100  256  256     0.00000   6.83468 2.42858e-004  1250  2174  -2.88   0.48  -0.18  -24.46  -17.27   11.62  1.200  0.000 0 2 0 2  1.000  1.000   3.13    0.00     0.00    0.00   1    8.00     0    0    0   240   0.0  1   1    7    0   0.000    0.000    0.000  1
 75   1    1  1 0 2    74  16   100  256  256     0.00000   6.83468 2.42858e-004  1285  2233  -2.88   0.48  -0.18  -24.47  -17.33   10.42  1.200  0.000 0 2 0 2  1.000  1.000   3.13    0.00     0.00    0.00   1    8.00     0    0    0   240   0.0  1   1    7    0   0.000    0.000    0.000  1
 76   1    1  1 0 2    75  16   100  256  256     0.00000   6.83468 2.42858e-004  1249  2171  -2.88   0.48  -0.18  -24.48  -17.39    9.22  1.200  0.000 0 2 0 2  1.000  1.000   3.13    0.00     0.00    0.00   1    8.00     0    0    0   240   0.0  1   1    7    0   0.000    0.000    0.000  1
 77   1    1  1 0 2    76  16   100  256  256     0.00000   6.83468 2.42858e-004  1218  2117  -2.88   0.48  -0.18  -24.49  -17.45    8.02  1.200  0.000 0 2 0 2  1.000  1.000   3.13    0.00     0.00    0.00   1    8.00     0    0    0   240   0.0  1   1    7    0   0.000    0.000    0.000  1
 78   1    1  1 0 2    77  16   100  256  256     0.00000   6.83468 2.42858e-004  1138  1979  -2.88   0.48  -0.18  -24.50  -17.51    6.82  1.200  0.000 0 2 0 2  1.000  1.000   3.13    0.00     0.00    0.00   1    8.00     0    0    0   240   0.0  1   1    7    0   0.000    0.000    0.000  1
 79   1    1  1 0 2    78  16   100  256  256     0.00000   6.83468 2.42858e-004  1068  1856  -2.88   0.48  -0.18  -24.51  -17.57    5.62  1.200  0.000 0 2 0 2  1.000  1.000   3.13    0.00     0.00    0.00   1    8.00     0    0    0   240   0.0  1   1    7    0   0.000    0.000    0.000  1
 80   1    1  1 0 2    79  16   100  256  256     0.00000   6.83468 2.42858e-004  1068  1856  -2.88   0.48  -0.18  -24.52  -17.63    4.43  1.200  0.000 0 2 0 2  1.000  1.000   3.13    0.00     0.00    0.00   1    8.00     0    0    0   240   0.0  1   1    7    0   0.000    0.000    0.000  1
 81   1    1  1 0 2    80  16   100  256  256     0.00000   6.83468 2.42858e-004  1069  1859  -2.88   0.48  -0.18  -24.53  -17.69    3.23  1.200  0.000 0 2 0 2  1.000  1.000   3.13    0.00     0.00    0.00   1    8.00     0    0    0   240   0.0  1   1    7    0   0.000    0.000    0.000  1
 82   1    1  1 0 2    81  16   100  256  256     0.00000   6.83468 2.42858e-004  1075  1869  -2.88   0.48  -0.18  -24.54  -17.75    2.03  1.200  0.000 0 2 0 2  1.000  1.000   3.13    0.00     0.00    0.00   1    8.00     0    0    0   240   0.0  1   1    7    0   0.000    0.000    0.000  1
 83   1    1  1 0 2    82  16   100  256  256     0.00000   6.83468 2.42858e-004  1066  1853  -2.88   0.48  -0.18  -24.55  -17.81    0.83  1.200  0.000 0 2 0 2  1.000  1.000   3.13    0.00     0.00    0.00   1    8.00     0    0    0   240   0.0  1   1    7    0   0.000    0.000    0.000  1
 84   1    1  1 0 2    83  16   100  256  256     0.00000   6.83468 2.42858e-004  1067  1855  -2.88   0.48  -0.18  -24.56  -17.87   -0.37  1.200  0.000 0 2 0 2  1.000  1.000   3.13    0.00     0.00    0.00   1    8.00     0    0    0   240   0.0  1   1    7    0   0.000    0.000    0.000  1
