# === DATA DESCRIPTION FILE ======================================================
#
# CAUTION - Investigational device.
# Limited by Federal Law to investigational use.
#
#
# CLINICAL TRYOUT             Research image export tool     V4.2
#
# === GENERAL INFORMATION ========================================================
#
.    Protocol name                      :   WIP 3D FLAIR Sag UMich SENSE
.    Series Type                        :   Image   MRSERIES
.    Acquisition nr                     :   4
.    Reconstruction nr                  :   1
.    Scan Duration [sec]                :   528
.    Max. number of cardiac phases      :   1
.    Max. number of echoes              :   1
.    Max. number of slices/locations    :   327
.    Max. number of dynamics            :   1
.    Max. number of mixes               :   1
.    Patient position                   :   Head First Supine
.    Preparation direction              :   Anterior-Posterior
.    Technique                          :   TIR
.    Scan resolution  (x, y)            :   216  220
.    Scan mode                          :   3D
.    Repetition time [ms]               :   8000.000  
.    FOV (ap,fh,rl) [mm]                :   240.000  200.000  179.850
.    Water Fat shift [pixels]           :   0.858
.    Angulation midslice(ap,fh,rl)[degr]:   -3.626  -0.029  -0.256
.    Off Centre midslice(ap,fh,rl) [mm] :   -20.920  14.949  -4.689
.    Flow compensation <0=no 1=yes> ?   :   1
.    Presaturation     <0=no 1=yes> ?   :   0
.    Phase encoding velocity [cm/sec]   :   0.000000  0.000000  0.000000
.    MTC               <0=no 1=yes> ?   :   0
.    SPIR              <0=no 1=yes> ?   :   1
.    EPI factor        <0,1=no EPI>     :   1
.    Dynamic scan      <0=no 1=yes> ?   :   0
.    Diffusion         <0=no 1=yes> ?   :   0
.    Diffusion echo time [ms]           :   0.0000
.    Max. number of diffusion values    :   1
.    Max. number of gradient orients    :   1
.    Number of label types   <0=no ASL> :   0
#
# === PIXEL VALUES =============================================================
#  PV = pixel value in REC file, FP = floating point value, DV = displayed value on console
#  RS = rescale slope,           RI = rescale intercept,    SS = scale slope
#  DV = PV * RS + RI             FP = DV / (RS * SS)
#
# === IMAGE INFORMATION DEFINITION =============================================
#  The rest of this file contains ONE line per image, this line contains the following information:
#
#  slice number                             (integer)
#  echo number                              (integer)
#  dynamic scan number                      (integer)
#  cardiac phase number                     (integer)
#  image_type_mr                            (integer)
#  scanning sequence                        (integer)
#  index in REC file (in images)            (integer)
#  image pixel size (in bits)               (integer)
#  scan percentage                          (integer)
#  recon resolution (x y)                   (2*integer)
#  rescale intercept                        (float)
#  rescale slope                            (float)
#  scale slope                              (float)
#  window center                            (integer)
#  window width                             (integer)
#  image angulation (ap,fh,rl in degrees )  (3*float)
#  image offcentre (ap,fh,rl in mm )        (3*float)
#  slice thickness (in mm )                 (float)
#  slice gap (in mm )                       (float)
#  image_display_orientation                (integer)
#  slice orientation ( TRA/SAG/COR )        (integer)
#  fmri_status_indication                   (integer)
#  image_type_ed_es  (end diast/end syst)   (integer)
#  pixel spacing (x,y) (in mm)              (2*float)
#  echo_time                                (float)
#  dyn_scan_begin_time                      (float)
#  trigger_time                             (float)
#  diffusion_b_factor                       (float)
#  number of averages                       (integer)
#  image_flip_angle (in degrees)            (float)
#  cardiac frequency   (bpm)                (integer)
#  minimum RR-interval (in ms)              (integer)
#  maximum RR-interval (in ms)              (integer)
#  TURBO factor  <0=no turbo>               (integer)
#  Inversion delay (in ms)                  (float)
#  diffusion b value number    (imagekey!)  (integer)
#  gradient orientation number (imagekey!)  (integer)
#  contrast type                            (string)
#  diffusion anisotropy type                (string)
#  diffusion (ap, fh, rl)                   (3*float)
#  label type (ASL)            (imagekey!)  (integer)
#
# === IMAGE INFORMATION ==========================================================
#  sl ec  dyn ph ty    idx pix scan% rec size                (re)scale              window        angulation              offcentre        thick   gap   info      spacing     echo     dtime   ttime    diff  avg  flip    freq   RR-int  turbo delay b grad cont anis         diffusion       L.ty

  1   1    1  1 0 0     0  16    79  576  576     0.00000   5.76484 1.22365e-003    19    33  -3.63  -0.03  -0.26  -20.94   20.62   84.78  1.100 -0.550 0 2 0 2  0.417  0.417 330.91    0.00     0.00    0.00   1   90.00     0    0    0   110 2400.0  1   1    8    0   0.000    0.000    0.000  1
  2   1    1  1 0 0     1  16    79  576  576     0.00000   5.76484 1.22365e-003    35    61  -3.63  -0.03  -0.26  -20.94   20.58   84.23  1.100 -0.550 0 2 0 2  0.417  0.417 330.91    0.00     0.00    0.00   1   90.00     0    0    0   110 2400.0  1   1    8    0   0.000    0.000    0.000  1
  3   1    1  1 0 0     2  16    79  576  576     0.00000   5.76484 1.22365e-003    43    74  -3.63  -0.03  -0.26  -20.94   20.55   83.68  1.100 -0.550 0 2 0 2  0.417  0.417 330.91    0.00     0.00    0.00   1   90.00     0    0    0   110 2400.0  1   1    8    0   0.000    0.000    0.000  1
  4   1    1  1 0 0     3  16    79  576  576     0.00000   5.76484 1.22365e-003    79   138  -3.63  -0.03  -0.26  -20.94   20.51   83.13  1.100 -0.550 0 2 0 2  0.417  0.417 330.91    0.00     0.00    0.00   1   90.00     0    0    0   110 2400.0  1   1    8    0   0.000    0.000    0.000  1
  5   1    1  1 0 0     4  16    79  576  576     0.00000   5.76484 1.22365e-003   130   227  -3.63  -0.03  -0.26  -20.94   20.48   82.59  1.100 -0.550 0 2 0 2  0.417  0.417 330.91    0.00     0.00    0.00   1   90.00     0    0    0   110 2400.0  1   1    8    0   0.000    0.000    0.000  1
  6   1    1  1 0 0     5  16    79  576  576     0.00000   5.76484 1.22365e-003   165   286  -3.63  -0.03  -0.26  -20.94   20.44   82.04  1.100 -0.550 0 2 0 2  0.417  0.417 330.91    0.00     0.00    0.00   1   90.00     0    0    0   110 2400.0  1   1    8    0   0.000    0.000    0.000  1
  7   1    1  1 0 0     6  16    79  576  576     0.00000   5.76484 1.22365e-003   173   301  -3.63  -0.03  -0.26  -20.94   20.41   81.49  1.100 -0.550 0 2 0 2  0.417  0.417 330.91    0.00     0.00    0.00   1   90.00     0    0    0   110 2400.0  1   1    8    0   0.000    0.000    0.000  1
  8   1    1  1 0 0     7  16    79  576  576     0.00000   5.76484 1.22365e-003   178   310  -3.63  -0.03  -0.26  -20.94   20.38   80.94  1.100 -0.550 0 2 0 2  0.417  0.417 330.91    0.00     0.00    0.00   1   90.00     0    0    0   110 2400.0  1   1    8    0   0.000    0.000    0.000  1
  9   1    1  1 0 0     8  16    79  576  576     0.00000   5.76484 1.22365e-003   188   327  -3.63  -0.03  -0.26  -20.94   20.34   80.39  1.100 -0.550 0 2 0 2  0.417  0.417 330.91    0.00     0.00    0.00   1   90.00     0    0    0   110 2400.0  1   1    8    0   0.000    0.000    0.000  1
 10   1    1  1 0 0     9  16    79  576  576     0.00000   5.76484 1.22365e-003   191   333  -3.63  -0.03  -0.26  -20.94   20.31   79.84  1.100 -0.550 0 2 0 2  0.417  0.417 330.91    0.00     0.00    0.00   1   90.00     0    0    0   110 2400.0  1   1    8    0   0.000    0.000    0.000  1
 11   1    1  1 0 0    10  16    79  576  576     0.00000   5.76484 1.22365e-003   194   337  -3.63  -0.03  -0.26  -20.94   20.27   79.29  1.100 -0.550 0 2 0 2  0.417  0.417 330.91    0.00     0.00    0.00   1   90.00     0    0    0   110 2400.0  1   1    8    0   0.000    0.000    0.000  1
 12   1    1  1 0 0    11  16    79  576  576     0.00000   5.76484 1.22365e-003   207   360  -3.63  -0.03  -0.26  -20.94   20.24   78.74  1.100 -0.550 0 2 0 2  0.417  0.417 330.91    0.00     0.00    0.00   1   90.00     0    0    0   110 2400.0  1   1    8    0   0.000    0.000    0.000  1
 13   1    1  1 0 0    12  16    79  576  576     0.00000   5.76484 1.22365e-003   222   385  -3.63  -0.03  -0.26  -20.94   20.20   78.19  1.100 -0.550 0 2 0 2  0.417  0.417 330.91    0.00     0.00    0.00   1   90.00     0    0    0   110 2400.0  1   1    8    0   0.000    0.000    0.000  1
 14   1    1  1 0 0    13  16    79  576  576     0.00000   5.76484 1.22365e-003   248   431  -3.63  -0.03  -0.26  -20.94   20.17   77.65  1.100 -0.550 0 2 0 2  0.417  0.417 330.91    0.00     0.00    0.00   1   90.00     0    0    0   110 2400.0  1   1    8    0   0.000    0.000    0.000  1
 15   1    1  1 0 0    14  16    79  576  576     0.00000   5.76484 1.22365e-003   270   469  -3.63  -0.03  -0.26  -20.94   20.13   77.10  1.100 -0.550 0 2 0 2  0.417  0.417 330.91    0.00     0.00    0.00   1   90.00     0    0    0   110 2400.0  1   1    8    0   0.000    0.000    0.000  1
 16   1    1  1 0 0    15  16    79  576  576     0.00000   5.76484 1.22365e-003   286   496  -3.63  -0.03  -0.26  -20.94   20.10   76.55  1.100 -0.550 0 2 0 2  0.417  0.417 330.91    0.00     0.00    0.00   1   90.00     0    0    0   110 2400.0  1   1    8    0   0.000    0.000    0.000  1
 17   1    1  1 0 0    16  16    79  576  576     0.00000   5.76484 1.22365e-003   298   519  -3.63  -0.03  -0.26  -20.94   20.06   76.00  1.100 -0.550 0 2 0 2  0.417  0.417 330.91    0.00     0.00    0.00   1   90.00     0    0    0   110 2400.0  1   1    8    0   0.000    0.000    0.000  1
 18   1    1  1 0 0    17  16    79  576  576     0.00000   5.76484 1.22365e-003   303   526  -3.63  -0.03  -0.26  -20.94   20.03   75.45  1.100 -0.550 0 2 0 2  0.417  0.417 330.91    0.00     0.00    0.00   1   90.00     0    0    0   110 2400.0  1   1    8    0   0.000    0.000    0.000  1
 19   1    1  1 0 0    18  16    79  576  576     0.00000   5.76484 1.22365e-003   309   538  -3.63  -0.03  -0.26  -20.94   19.99   74.90  1.100 -0.550 0 2 0 2  0.417  0.417 330.91    0.00     0.00    0.00   1   90.00     0    0    0   110 2400.0  1   1    8    0   0.000    0.000    0.000  1
 20   1    1  1 0 0    19  16    79  576  576     0.00000   5.76484 1.22365e-003   312   542  -3.63  -0.03  -0.26  -20.94   19.96   74.35  1.100 -0.550 0 2 0 2  0.417  0.417 330.91    0.00     0.00    0.00   1   90.00     0    0    0   110 2400.0  1   1    8    0   0.000    0.000    0.000  1
 21   1    1  1 0 0    20  16    79  576  576     0.00000   5.76484 1.22365e-003   304   529  -3.63  -0.03  -0.26  -20.94   19.92   73.80  1.100 -0.550 0 2 0 2  0.417  0.417 330.91    0.00     0.00    0.00   1   90.00     0    0    0   110 2400.0  1   1    8    0   0.000    0.000    0.000  1
 22   1    1  1 0 0    21  16    79  576  576     0.00000   5.76484 1.22365e-003   302   525  -3.63  -0.03  -0.26  -20.94   19.89   73.25  1.100 -0.550 0 2 0 2  0.417  0.417 330.91    0.00     0.00    0.00   1   90.00     0    0    0   110 2400.0  1   1    8    0   0.000    0.000    0.000  1
 23   1    1  1 0 0    22  16    79  576  576     0.00000   5.76484 1.22365e-003   307   533  -3.63  -0.03  -0.26  -20.94   19.85   72.71  1.100 -0.550 0 2 0 2  0.417  0.417 330.91    0.00     0.00    0.00   1   90.00     0    0    0   110 2400.0  1   1    8    0   0.000    0.000    0.000  1
 24   1    1  1 0 0    23  16    79  576  576     0.00000   5.76484 1.22365e-003   314   546  -3.63  -0.03  -0.26  -20.94   19.82   72.16  1.100 -0.550 0 2 0 2  0.417  0.417 330.91    0.00     0.00    0.00   1   90.00     0    0    0   110 2400.0  1   1    8    0   0.000    0.000    0.000  1
 25   1    1  1 0 0    24  16    79  576  576     0.00000   5.76484 1.22365e-003   304   528  -3.63  -0.03  -0.26  -20.94   19.78   71.61  1.100 -0.550 0 2 0 2  0.417  0.417 330.91    0.00     0.00    0.00   1   90.00     0    0    0   110 2400.0  1   1    8    0   0.000    0.000    0.000  1
 26   1    1  1 0 0    25  16    79  576  576     0.00000   5.76484 1.22365e-003   296   515  -3.63  -0.03  -0.26  -20.94   19.75   71.06  1.100 -0.550 0 2 0 2  0.417  0.417 330.91    0.00     0.00    0.00   1   90.00     0    0    0   110 2400.0  1   1    8    0   0.000    0.000    0.000  1
 27   1    1  1 0 0    26  16    79  576  576     0.00000   5.76484 1.22365e-003   313   543  -3.63  -0.03  -0.26  -20.94   19.71   70.51  1.100 -0.550 0 2 0 2  0.417  0.417 330.91    0.00     0.00    0.00   1   90.00     0    0    0   110 2400.0  1   1    8    0   0.000    0.000    0.000  1
 28   1    1  1 0 0    27  16    79  576  576     0.00000   5.76484 1.22365e-003   326   566  -3.63  -0.03  -0.26  -20.94   19.68   69.96  1.100 -0.550 0 2 0 2  0.417  0.417 330.91    0.00     0.00    0.00   1   90.00     0    0    0   110 2400.0  1   1    8    0   0.000    0.000    0.000  1
 29   1    1  1 0 0    28  16    79  576  576     0.00000   5.76484 1.22365e-003   354   616  -3.63  -0.03  -0.26  -20.94   19.64   69.41  1.100 -0.550 0 2 0 2  0.417  0.417 330.91    0.00     0.00    0.00   1   90.00     0    0    0   110 2400.0  1   1    8    0   0.000    0.000    0.000  1
 30   1    1  1 0 0    29  16    79  576  576     0.00000   5.76484 1.22365e-003   396   688  -3.63  -0.03  -0.26  -20.94   19.61   68.86  1.100 -0.550 0 2 0 2  0.417  0.417 330.91    0.00     0.00    0.00   1   90.00     0    0    0   110 2400.0  1   1    8    0   0.000    0.000    0.000  1
 31   1    1  1 0 0    30  16    79  576  576     0.00000   5.76484 1.22365e-003   419   728  -3.63  -0.03  -0.26  -20.94   19.58   68.31  1.100 -0.550 0 2 0 2  0.417  0.417 330.91    0.00     0.00    0.00   1   90.00     0    0    0   110 2400.0  1   1    8    0   0.000    0.000    0.000  1
 32   1    1  1 0 0    31  16    79  576  576     0.00000   5.76484 1.22365e-003   423   735  -3.63  -0.03  -0.26  -20.94   19.54   67.77  1.100 -0.550 0 2 0 2  0.417  0.417 330.91    0.00     0.00    0.00   1   90.00     0    0    0   110 2400.0  1   1    8    0   0.000    0.000    0.000  1
 33   1    1  1 0 0    32  16    79  576  576     0.00000   5.76484 1.22365e-003   429   746  -3.63  -0.03  -0.26  -20.94   19.51   67.22  1.100 -0.550 0 2 0 2  0.417  0.417 330.91    0.00     0.00    0.00   1   90.00     0    0    0   110 2400.0  1   1    8    0   0.000    0.000    0.000  1
 34   1    1  1 0 0    33  16    79  576  576     0.00000   5.76484 1.22365e-003   456   793  -3.63  -0.03  -0.26  -20.94   19.47   66.67  1.100 -0.550 0 2 0 2  0.417  0.417 330.91    0.00     0.00    0.00   1   90.00     0    0    0   110 2400.0  1   1    8    0   0.000    0.000    0.000  1
 35   1    1  1 0 0    34  16    79  576  576     0.00000   5.76484 1.22365e-003   493   857  -3.63  -0.03  -0.26  -20.94   19.44   66.12  1.100 -0.550 0 2 0 2  0.417  0.417 330.91    0.00     0.00    0.00   1   90.00     0    0    0   110 2400.0  1   1    8    0   0.000    0.000    0.000  1
 36   1    1  1 0 0    35  16    79  576  576     0.00000   5.76484 1.22365e-003   523   909  -3.63  -0.03  -0.26  -20.94   19.40   65.57  1.100 -0.550 0 2 0 2  0.417  0.417 330.91    0.00     0.00    0.00   1   90.00     0    0    0   110 2400.0  1   1    8    0   0.000    0.000    0.000  1
 37   1    1  1 0 0    36  16    79  576  576     0.00000   5.76484 1.22365e-003   530   921  -3.63  -0.03  -0.26  -20.94   19.37   65.02  1.100 -0.550 0 2 0 2  0.417  0.417 330.91    0.00     0.00    0.00   1   90.00     0    0    0   110 2400.0  1   1    8    0   0.000    0.000    0.000  1
 38   1    1  1 0 0    37  16    79  576  576     0.00000   5.76484 1.22365e-003   534   928  -3.63  -0.03  -0.26  -20.94   19.33   64.47  1.100 -0.550 0 2 0 2  0.417  0.417 330.91    0.00     0.00    0.00   1   90.00     0    0    0   110 2400.0  1   1    8    0   0.000    0.000    0.000  1
 39   1    1  1 0 0    38  16    79  576  576     0.00000   5.76484 1.22365e-003   568   988  -3.63  -0.03  -0.26  -20.94   19.30   63.92  1.100 -0.550 0 2 0 2  0.417  0.417 330.91    0.00     0.00    0.00   1   90.00     0    0    0   110 2400.0  1   1    8    0   0.000    0.000    0.000  1
 40   1    1  1 0 0    39  16    79  576  576     0.00000   5.76484 1.22365e-003   594  1033  -3.63  -0.03  -0.26  -20.94   19.26   63.37  1.100 -0.550 0 2 0 2  0.417  0.417 330.91    0.00     0.00    0.00   1   90.00     0    0    0   110 2400.0  1   1    8    0   0.000    0.000    0.000  1
 41   1    1  1 0 0    40  16    79  576  576     0.00000   5.76484 1.22365e-003   620  1078  -3.63  -0.03  -0.26  -20.94   19.23   62.83  1.100 -0.550 0 2 0 2  0.417  0.417 330.91    0.00     0.00    0.00   1   90.00     0    0    0   110 2400.0  1   1    8    0   0.000    0.000    0.000  1
 42   1    1  1 0 0    41  16    79  576  576     0.00000   5.76484 1.22365e-003   641  1115  -3.63  -0.03  -0.26  -20.94   19.19   62.28  1.100 -0.550 0 2 0 2  0.417  0.417 330.91    0.00     0.00    0.00   1   90.00     0    0    0   110 2400.0  1   1    8    0   0.000    0.000    0.000  1
 43   1    1  1 0 0    42  16    79  576  576     0.00000   5.76484 1.22365e-003   666  1157  -3.63  -0.03  -0.26  -20.94   19.16   61.73  1.100 -0.550 0 2 0 2  0.417  0.417 330.91    0.00     0.00    0.00   1   90.00     0    0    0   110 2400.0  1   1    8    0   0.000    0.000    0.000  1
 44   1    1  1 0 0    43  16    79  576  576     0.00000   5.76484 1.22365e-003   700  1217  -3.63  -0.03  -0.26  -20.94   19.12   61.18  1.100 -0.550 0 2 0 2  0.417  0.417 330.91    0.00     0.00    0.00   1   90.00     0    0    0   110 2400.0  1   1    8    0   0.000    0.000    0.000  1
 45   1    1  1 0 0    44  16    79  576  576     0.00000   5.76484 1.22365e-003   733  1273  -3.63  -0.03  -0.26  -20.94   19.09   60.63  1.100 -0.550 0 2 0 2  0.417  0.417 330.91    0.00     0.00    0.00   1   90.00     0    0    0   110 2400.0  1   1    8    0   0.000    0.000    0.000  1
 46   1    1  1 0 0    45  16    79  576  576     0.00000   5.76484 1.22365e-003   770  1338  -3.63  -0.03  -0.26  -20.94   19.05   60.08  1.100 -0.550 0 2 0 2  0.417  0.417 330.91    0.00     0.00    0.00   1   90.00     0    0    0   110 2400.0  1   1    8    0   0.000    0.000    0.000  1
 47   1    1  1 0 0    46  16    79  576  576     0.00000   5.76484 1.22365e-003   794  1381  -3.63  -0.03  -0.26  -20.94   19.02   59.53  1.100 -0.550 0 2 0 2  0.417  0.417 330.91    0.00     0.00    0.00   1   90.00     0    0    0   110 2400.0  1   1    8    0   0.000    0.000    0.000  1
 48   1    1  1 0 0    47  16    79  576  576     0.00000   5.76484 1.22365e-003   815  1416  -3.63  -0.03  -0.26  -20.94   18.98   58.98  1.100 -0.550 0 2 0 2  0.417  0.417 330.91    0.00     0.00    0.00   1   90.00     0    0    0   110 2400.0  1   1    8    0   0.000    0.000    0.000  1
 49   1    1  1 0 0    48  16    79  576  576     0.00000   5.76484 1.22365e-003   844  1467  -3.63  -0.03  -0.26  -20.93   18.95   58.43  1.100 -0.550 0 2 0 2  0.417  0.417 330.91    0.00     0.00    0.00   1   90.00     0    0    0   110 2400.0  1   1    8    0   0.000    0.000    0.000  1
 50   1    1  1 0 0    49  16    79  576  576     0.00000   5.76484 1.22365e-003   876  1522  -3.63  -0.03  -0.26  -20.93   18.91   57.89  1.100 -0.550 0 2 0 2  0.417  0.417 330.91    0.00     0.00    0.00   1   90.00     0    0    0   110 2400.0  1   1    8    0   0.000    0.000    0.000  1
 51   1    1  1 0 0    50  16    79  576  576     0.00000   5.76484 1.22365e-003   903  1570  -3.63  -0.03  -0.26  -20.93   18.88   57.34  1.100 -0.550 0 2 0 2  0.417  0.417 330.91    0.00     0.00    0.00   1   90.00     0    0    0   110 2400.0  1   1    8    0   0.000    0.000    0.000  1
 52   1    1  1 0 0    51  16    79  576  576     0.00000   5.76484 1.22365e-003   932  1621  -3.63  -0.03  -0.26  -20.93   18.84   56.79  1.100 -0.550 0 2 0 2  0.417  0.417 330.91    0.00     0.00    0.00   1   90.00     0    0    0   110 2400.0  1   1    8    0   0.000    0.000    0.000  1
 53   1    1  1 0 0    52  16    79  576  576     0.00000   5.76484 1.22365e-003   957  1663  -3.63  -0.03  -0.26  -20.93   18.81   56.24  1.100 -0.550 0 2 0 2  0.417  0.417 330.91    0.00     0.00    0.00   1   90.00     0    0    0   110 2400.0  1   1    8    0   0.000    0.000    0.000  1
 54   1    1  1 0 0    53  16    79  576  576     0.00000   5.76484 1.22365e-003   985  1712  -3.63  -0.03  -0.26  -20.93   18.78   55.69  1.100 -0.550 0 2 0 2  0.417  0.417 330.91    0.00     0.00    0.00   1   90.00     0    0    0   110 2400.0  1   1    8    0   0.000    0.000    0.000  1
 55   1    1  1 0 0    54  16    79  576  576     0.00000   5.76484 1.22365e-003   992  1724  -3.63  -0.03  -0.26  -20.93   18.74   55.14  1.100 -0.550 0 2 0 2  0.417  0.417 330.91    0.00     0.00    0.00   1   90.00     0    0    0   110 2400.0  1   1    8    0   0.000    0.000    0.000  1
 56   1    1  1 0 0    55  16    79  576  576     0.00000   5.76484 1.22365e-003  1014  1763  -3.63  -0.03  -0.26  -20.93   18.71   54.59  1.100 -0.550 0 2 0 2  0.417  0.417 330.91    0.00     0.00    0.00   1   90.00     0    0    0   110 2400.0  1   1    8    0   0.000    0.000    0.000  1
 57   1    1  1 0 0    56  16    79  576  576     0.00000   5.76484 1.22365e-003  1040  1807  -3.63  -0.03  -0.26  -20.93   18.67   54.04  1.100 -0.550 0 2 0 2  0.417  0.417 330.91    0.00     0.00    0.00   1   90.00     0    0    0   110 2400.0  1   1    8    0   0.000    0.000    0.000  1
 58   1    1  1 0 0    57  16    79  576  576     0.00000   5.76484 1.22365e-003  1047  1820  -3.63  -0.03  -0.26  -20.93   18.64   53.49  1.100 -0.550 0 2 0 2  0.417  0.417 330.91    0.00     0.00    0.00   1   90.00     0    0    0   110 2400.0  1   1    8    0   0.000    0.000    0.000  1
 59   1    1  1 0 0    58  16    79  576  576     0.00000   5.76484 1.22365e-003  1067  1854  -3.63  -0.03  -0.26  -20.93   18.60   52.95  1.100 -0.550 0 2 0 2  0.417  0.417 330.91    0.00     0.00    0.00   1   90.00     0    0    0   110 2400.0  1   1    8    0   0.000    0.000    0.000  1
 60   1    1  1 0 0    59  16    79  576  576     0.00000   5.76484 1.22365e-003  1073  1865  -3.63  -0.03  -0.26  -20.93   18.57   52.40  1.100 -0.550 0 2 0 2  0.417  0.417 330.91    0.00     0.00    0.00   1   90.00     0    0    0   110 2400.0  1   1    8    0   0.000    0.000    0.000  1
 61   1    1  1 0 0    60  16    79  576  576     0.00000   5.76484 1.22365e-003  1073  1866  -3.63  -0.03  -0.26  -20.93   18.53   51.85  1.100 -0.550 0 2 0 2  0.417  0.417 330.91    0.00     0.00    0.00   1   90.00     0    0    0   110 2400.0  1   1    8    0   0.000    0.000    0.000  1
 62   1    1  1 0 0    61  16    79  576  576     0.00000   5.76484 1.22365e-003  1099  1911  -3.63  -0.03  -0.26  -20.93   18.50   51.30  1.100 -0.550 0 2 0 2  0.417  0.417 330.91    0.00     0.00    0.00   1   90.00     0    0    0   110 2400.0  1   1    8    0   0.000    0.000    0.000  1
 63   1    1  1 0 0    62  16    79  576  576     0.00000   5.76484 1.22365e-003  1103  1917  -3.63  -0.03  -0.26  -20.93   18.46   50.75  1.100 -0.550 0 2 0 2  0.417  0.417 330.91    0.00     0.00    0.00   1   90.00     0    0    0   110 2400.0  1   1    8    0   0.000    0.000    0.000  1
 64   1    1  1 0 0    63  16    79  576  576     0.00000   5.76484 1.22365e-003  1100  1911  -3.63  -0.03  -0.26  -20.93   18.43   50.20  1.100 -0.550 0 2 0 2  0.417  0.417 330.91    0.00     0.00    0.00   1   90.00     0    0    0   110 2400.0  1   1    8    0   0.000    0.000    0.000  1
 65   1    1  1 0 0    64  16    79  576  576     0.00000   5.76484 1.22365e-003  1104  1919  -3.63  -0.03  -0.26  -20.93   18.39   49.65  1.100 -0.550 0 2 0 2  0.417  0.417 330.91    0.00     0.00    0.00   1   90.00     0    0    0   110 2400.0  1   1    8    0   0.000    0.000    0.000  1
 66   1    1  1 0 0    65  16    79  576  576     0.00000   5.76484 1.22365e-003  1107  1924  -3.63  -0.03  -0.26  -20.93   18.36   49.10  1.100 -0.550 0 2 0 2  0.417  0.417 330.91    0.00     0.00    0.00   1   90.00     0    0    0   110 2400.0  1   1    8    0   0.000    0.000    0.000  1
 67   1    1  1 0 0    66  16    79  576  576     0.00000   5.76484 1.22365e-003  1095  1903  -3.63  -0.03  -0.26  -20.93   18.32   48.55  1.100 -0.550 0 2 0 2  0.417  0.417 330.91    0.00     0.00    0.00   1   90.00     0    0    0   110 2400.0  1   1    8    0   0.000    0.000    0.000  1
 68   1    1  1 0 0    67  16    79  576  576     0.00000   5.76484 1.22365e-003  1104  1918  -3.63  -0.03  -0.26  -20.93   18.29   48.01  1.100 -0.550 0 2 0 2  0.417  0.417 330.91    0.00     0.00    0.00   1   90.00     0    0    0   110 2400.0  1   1    8    0   0.000    0.000    0.000  1
 69   1    1  1 0 0    68  16    79  576  576     0.00000   5.76484 1.22365e-003  1112  1933  -3.63  -0.03  -0.26  -20.93   18.25   47.46  1.100 -0.550 0 2 0 2  0.417  0.417 330.91    0.00     0.00    0.00   1   90.00     0    0    0   110 2400.0  1   1    8    0   0.000    0.000    0.000  1
 70   1    1  1 0 0    69  16    79  576  576     0.00000   5.76484 1.22365e-003  1123  1952  -3.63  -0.03  -0.26  -20.93   18.22   46.91  1.100 -0.550 0 2 0 2  0.417  0.417 330.91    0.00     0.00    0.00   1   90.00     0    0    0   110 2400.0  1   1    8    0   0.000    0.000    0.000  1
 71   1    1  1 0 0    70  16    79  576  576     0.00000   5.76484 1.22365e-003  1135  1973  -3.63  -0.03  -0.26  -20.93   18.18   46.36  1.100 -0.550 0 2 0 2  0.417  0.417 330.91    0.00     0.00    0.00   1   90.00     0    0    0   110 2400.0  1   1    8    0   0.000    0.000    0.000  1
 72   1    1  1 0 0    71  16    79  576  576     0.00000   5.76484 1.22365e-003  1144  1989  -3.63  -0.03  -0.26  -20.93   18.15   45.81  1.100 -0.550 0 2 0 2  0.417  0.417 330.91    0.00     0.00    0.00   1   90.00     0    0    0   110 2400.0  1   1    8    0   0.000    0.000    0.000  1
 73   1    1  1 0 0    72  16    79  576  576     0.00000   5.76484 1.22365e-003  1145  1991  -3.63  -0.03  -0.26  -20.93   18.11   45.26  1.100 -0.550 0 2 0 2  0.417  0.417 330.91    0.00     0.00    0.00   1   90.00     0    0    0   110 2400.0  1   1    8    0   0.000    0.000    0.000  1
 74   1    1  1 0 0    73  16    79  576  576     0.00000   5.76484 1.22365e-003  1142  1986  -3.63  -0.03  -0.26  -20.93   18.08   44.71  1.100 -0.550 0 2 0 2  0.417  0.417 330.91    0.00     0.00    0.00   1   90.00     0    0    0   110 2400.0  1   1    8    0   0.000    0.000    0.000  1
 75   1    1  1 0 0    74  16    79  576  576     0.00000   5.76484 1.22365e-003  1141  1983  -3.63  -0.03  -0.26  -20.93   18.04   44.16  1.100 -0.550 0 2 0 2  0.417  0.417 330.91    0.00     0.00    0.00   1   90.00     0    0    0   110 2400.0  1   1    8    0   0.000    0.000    0.000  1
 76   1    1  1 0 0    75  16    79  576  576     0.00000   5.76484 1.22365e-003  1161  2017  -3.63  -0.03  -0.26  -20.93   18.01   43.61  1.100 -0.550 0 2 0 2  0.417  0.417 330.91    0.00     0.00    0.00   1   90.00     0    0    0   110 2400.0  1   1    8    0   0.000    0.000    0.000  1
 77   1    1  1 0 0    76  16    79  576  576     0.00000   5.76484 1.22365e-003  1175  2043  -3.63  -0.03  -0.26  -20.93   17.98   43.07  1.100 -0.550 0 2 0 2  0.417  0.417 330.91    0.00     0.00    0.00   1   90.00     0    0    0   110 2400.0  1   1    8    0   0.000    0.000    0.000  1
 78   1    1  1 0 0    77  16    79  576  576     0.00000   5.76484 1.22365e-003  1168  2030  -3.63  -0.03  -0.26  -20.93   17.94   42.52  1.100 -0.550 0 2 0 2  0.417  0.417 330.91    0.00     0.00    0.00   1   90.00     0    0    0   110 2400.0  1   1    8    0   0.000    0.000    0.000  1
 79   1    1  1 0 0    78  16    79  576  576     0.00000   5.76484 1.22365e-003  1173  2040  -3.63  -0.03  -0.26  -20.93   17.91   41.97  1.100 -0.550 0 2 0 2  0.417  0.417 330.91    0.00     0.00    0.00   1   90.00     0    0    0   110 2400.0  1   1    8    0   0.000    0.000    0.000  1
 80   1    1  1 0 0    79  16    79  576  576     0.00000   5.76484 1.22365e-003  1193  2074  -3.63  -0.03  -0.26  -20.93   17.87   41.42  1.100 -0.550 0 2 0 2  0.417  0.417 330.91    0.00     0.00    0.00   1   90.00     0    0    0   110 2400.0  1   1    8    0   0.000    0.000    0.000  1
 81   1    1  1 0 0    80  16    79  576  576     0.00000   5.76484 1.22365e-003  1208  2100  -3.63  -0.03  -0.26  -20.93   17.84   40.87  1.100 -0.550 0 2 0 2  0.417  0.417 330.91    0.00     0.00    0.00   1   90.00     0    0    0   110 2400.0  1   1    8    0   0.000    0.000    0.000  1
 82   1    1  1 0 0    81  16    79  576  576     0.00000   5.76484 1.22365e-003  1209  2102  -3.63  -0.03  -0.26  -20.93   17.80   40.32  1.100 -0.550 0 2 0 2  0.417  0.417 330.91    0.00     0.00    0.00   1   90.00     0    0    0   110 2400.0  1   1    8    0   0.000    0.000    0.000  1
 83   1    1  1 0 0    82  16    79  576  576     0.00000   5.76484 1.22365e-003  1201  2088  -3.63  -0.03  -0.26  -20.93   17.77   39.77  1.100 -0.550 0 2 0 2  0.417  0.417 330.91    0.00     0.00    0.00   1   90.00     0    0    0   110 2400.0  1   1    8    0   0.000    0.000    0.000  1
 84   1    1  1 0 0    83  16    79  576  576     0.00000   5.76484 1.22365e-003  1201  2088  -3.63  -0.03  -0.26  -20.93   17.73   39.22  1.100 -0.550 0 2 0 2  0.417  0.417 330.91    0.00     0.00    0.00   1   90.00     0    0    0   110 2400.0  1   1    8    0   0.000    0.000    0.000  1
