# === DATA DESCRIPTION FILE ======================================================
#
# CAUTION - Investigational device.
# Limited by Federal Law to investigational use.
#
#
# CLINICAL TRYOUT             Research image export tool     V4.2
#
# === GENERAL INFORMATION ========================================================
#
.    Protocol name                      :   WIP MPrageADNIsag SENSE
.    Series Type                        :   Image   MRSERIES
.    Acquisition nr                     :   3
.    Reconstruction nr                  :   1
.    Scan Duration [sec]                :   356
.    Max. number of cardiac phases      :   1
.    Max. number of echoes              :   1
.    Max. number of slices/locations    :   170
.    Max. number of dynamics            :   1
.    Max. number of mixes               :   1
.    Patient position                   :   Head First Supine
.    Preparation direction              :   Anterior-Posterior
.    Technique                          :   T1TFE
.    Scan resolution  (x, y)            :   256  256
.    Scan mode                          :   3D
.    Repetition time [ms]               :   6.761  
.    FOV (ap,fh,rl) [mm]                :   240.000  256.000  204.000
.    Water Fat shift [pixels]           :   1.802
.    Angulation midslice(ap,fh,rl)[degr]:   -3.850  2.668  -0.090
.    Off Centre midslice(ap,fh,rl) [mm] :   -15.033  -7.326  -0.924
.    Flow compensation <0=no 1=yes> ?   :   0
.    Presaturation     <0=no 1=yes> ?   :   0
.    Phase encoding velocity [cm/sec]   :   0.000000  0.000000  0.000000
.    MTC               <0=no 1=yes> ?   :   0
.    SPIR              <0=no 1=yes> ?   :   0
.    EPI factor        <0,1=no EPI>     :   1
.    Dynamic scan      <0=no 1=yes> ?   :   0
.    Diffusion         <0=no 1=yes> ?   :   0
.    Diffusion echo time [ms]           :   0.0000
.    Max. number of diffusion values    :   1
.    Max. number of gradient orients    :   1
.    Number of label types   <0=no ASL> :   0
#
# === PIXEL VALUES =============================================================
#  PV = pixel value in REC file, FP = floating point value, DV = displayed value on console
#  RS = rescale slope,           RI = rescale intercept,    SS = scale slope
#  DV = PV * RS + RI             FP = DV / (RS * SS)
#
# === IMAGE INFORMATION DEFINITION =============================================
#  The rest of this file contains ONE line per image, this line contains the following information:
#
#  slice number                             (integer)
#  echo number                              (integer)
#  dynamic scan number                      (integer)
#  cardiac phase number                     (integer)
#  image_type_mr                            (integer)
#  scanning sequence                        (integer)
#  index in REC file (in images)            (integer)
#  image pixel size (in bits)               (integer)
#  scan percentage                          (integer)
#  recon resolution (x y)                   (2*integer)
#  rescale intercept                        (float)
#  rescale slope                            (float)
#  scale slope                              (float)
#  window center                            (integer)
#  window width                             (integer)
#  image angulation (ap,fh,rl in degrees )  (3*float)
#  image offcentre (ap,fh,rl in mm )        (3*float)
#  slice thickness (in mm )                 (float)
#  slice gap (in mm )                       (float)
#  image_display_orientation                (integer)
#  slice orientation ( TRA/SAG/COR )        (integer)
#  fmri_status_indication                   (integer)
#  image_type_ed_es  (end diast/end syst)   (integer)
#  pixel spacing (x,y) (in mm)              (2*float)
#  echo_time                                (float)
#  dyn_scan_begin_time                      (float)
#  trigger_time                             (float)
#  diffusion_b_factor                       (float)
#  number of averages                       (integer)
#  image_flip_angle (in degrees)            (float)
#  cardiac frequency   (bpm)                (integer)
#  minimum RR-interval (in ms)              (integer)
#  maximum RR-interval (in ms)              (integer)
#  TURBO factor  <0=no turbo>               (integer)
#  Inversion delay (in ms)                  (float)
#  diffusion b value number    (imagekey!)  (integer)
#  gradient orientation number (imagekey!)  (integer)
#  contrast type                            (string)
#  diffusion anisotropy type                (string)
#  diffusion (ap, fh, rl)                   (3*float)
#  label type (ASL)            (imagekey!)  (integer)
#
# === IMAGE INFORMATION ==========================================================
#  sl ec  dyn ph ty    idx pix scan% rec size                (re)scale              window        angulation              offcentre        thick   gap   info      spacing     echo     dtime   ttime    diff  avg  flip    freq   RR-int  turbo delay b grad cont anis         diffusion       L.ty

  1   1    1  1 0 2     0  16   100  256  256     0.00000   6.92821 2.06588e-004    12    21  -3.85   2.67  -0.09  -10.30   -0.53  100.14  1.200  0.000 0 2 0 2  1.000  1.000   3.12    0.00     0.00    0.00   1    8.00     0    0    0   240   0.0  1   1    7    0   0.000    0.000    0.000  1
  2   1    1  1 0 2     1  16   100  256  256     0.00000   6.92821 2.06588e-004    12    21  -3.85   2.67  -0.09  -10.36   -0.61   98.94  1.200  0.000 0 2 0 2  1.000  1.000   3.12    0.00     0.00    0.00   1    8.00     0    0    0   240   0.0  1   1    7    0   0.000    0.000    0.000  1
  3   1    1  1 0 2     2  16   100  256  256     0.00000   6.92821 2.06588e-004    12    21  -3.85   2.67  -0.09  -10.42   -0.69   97.75  1.200  0.000 0 2 0 2  1.000  1.000   3.12    0.00     0.00    0.00   1    8.00     0    0    0   240   0.0  1   1    7    0   0.000    0.000    0.000  1
  4   1    1  1 0 2     3  16   100  256  256     0.00000   6.92821 2.06588e-004    14    25  -3.85   2.67  -0.09  -10.47   -0.77   96.55  1.200  0.000 0 2 0 2  1.000  1.000   3.12    0.00     0.00    0.00   1    8.00     0    0    0   240   0.0  1   1    7    0   0.000    0.000    0.000  1
  5   1    1  1 0 2     4  16   100  256  256     0.00000   6.92821 2.06588e-004    15    26  -3.85   2.67  -0.09  -10.53   -0.85   95.35  1.200  0.000 0 2 0 2  1.000  1.000   3.12    0.00     0.00    0.00   1    8.00     0    0    0   240   0.0  1   1    7    0   0.000    0.000    0.000  1
  6   1    1  1 0 2     5  16   100  256  256     0.00000   6.92821 2.06588e-004    17    30  -3.85   2.67  -0.09  -10.58   -0.93   94.16  1.200  0.000 0 2 0 2  1.000  1.000   3.12    0.00     0.00    0.00   1    8.00     0    0    0   240   0.0  1   1    7    0   0.000    0.000    0.000  1
  7   1    1  1 0 2     6  16   100  256  256     0.00000   6.92821 2.06588e-004    21    37  -3.85   2.67  -0.09  -10.64   -1.01   92.96  1.200  0.000 0 2 0 2  1.000  1.000   3.12    0.00     0.00    0.00   1    8.00     0    0    0   240   0.0  1   1    7    0   0.000    0.000    0.000  1
  8   1    1  1 0 2     7  16   100  256  256     0.00000   6.92821 2.06588e-004    22    38  -3.85   2.67  -0.09  -10.70   -1.09   91.77  1.200  0.000 0 2 0 2  1.000  1.000   3.12    0.00     0.00    0.00   1    8.00     0    0    0   240   0.0  1   1    7    0   0.000    0.000    0.000  1
  9   1    1  1 0 2     8  16   100  256  256     0.00000   6.92821 2.06588e-004    24    41  -3.85   2.67  -0.09  -10.75   -1.17   90.57  1.200  0.000 0 2 0 2  1.000  1.000   3.12    0.00     0.00    0.00   1    8.00     0    0    0   240   0.0  1   1    7    0   0.000    0.000    0.000  1
 10   1    1  1 0 2     9  16   100  256  256     0.00000   6.92821 2.06588e-004    29    51  -3.85   2.67  -0.09  -10.81   -1.25   89.37  1.200  0.000 0 2 0 2  1.000  1.000   3.12    0.00     0.00    0.00   1    8.00     0    0    0   240   0.0  1   1    7    0   0.000    0.000    0.000  1
 11   1    1  1 0 2    10  16   100  256  256     0.00000   6.92821 2.06588e-004    39    68  -3.85   2.67  -0.09  -10.86   -1.34   88.18  1.200  0.000 0 2 0 2  1.000  1.000   3.12    0.00     0.00    0.00   1    8.00     0    0    0   240   0.0  1   1    7    0   0.000    0.000    0.000  1
 12   1    1  1 0 2    11  16   100  256  256     0.00000   6.92821 2.06588e-004   140   243  -3.85   2.67  -0.09  -10.92   -1.42   86.98  1.200  0.000 0 2 0 2  1.000  1.000   3.12    0.00     0.00    0.00   1    8.00     0    0    0   240   0.0  1   1    7    0   0.000    0.000    0.000  1
 13   1    1  1 0 2    12  16   100  256  256     0.00000   6.92821 2.06588e-004   391   680  -3.85   2.67  -0.09  -10.97   -1.50   85.79  1.200  0.000 0 2 0 2  1.000  1.000   3.12    0.00     0.00    0.00   1    8.00     0    0    0   240   0.0  1   1    7    0   0.000    0.000    0.000  1
 14   1    1  1 0 2    13  16   100  256  256     0.00000   6.92821 2.06588e-004   546   948  -3.85   2.67  -0.09  -11.03   -1.58   84.59  1.200  0.000 0 2 0 2  1.000  1.000   3.12    0.00     0.00    0.00   1    8.00     0    0    0   240   0.0  1   1    7    0   0.000    0.000    0.000  1
 15   1    1  1 0 2    14  16   100  256  256     0.00000   6.92821 2.06588e-004   570   991  -3.85   2.67  -0.09  -11.09   -1.66   83.39  1.200  0.000 0 2 0 2  1.000  1.000   3.12    0.00     0.00    0.00   1    8.00     0    0    0   240   0.0  1   1    7    0   0.000    0.000    0.000  1
 16   1    1  1 0 2    15  16   100  256  256     0.00000   6.92821 2.06588e-004   571   993  -3.85   2.67  -0.09  -11.14   -1.74   82.20  1.200  0.000 0 2 0 2  1.000  1.000   3.12    0.00     0.00    0.00   1    8.00     0    0    0   240   0.0  1   1    7    0   0.000    0.000    0.000  1
 17   1    1  1 0 2    16  16   100  256  256     0.00000   6.92821 2.06588e-004   586  1018  -3.85   2.67  -0.09  -11.20   -1.82   81.00  1.200  0.000 0 2 0 2  1.000  1.000   3.12    0.00     0.00    0.00   1    8.00     0    0    0   240   0.0  1   1    7    0   0.000    0.000    0.000  1
 18   1    1  1 0 2    17  16   100  256  256     0.00000   6.92821 2.06588e-004   594  1033  -3.85   2.67  -0.09  -11.25   -1.90   79.81  1.200  0.000 0 2 0 2  1.000  1.000   3.12    0.00     0.00    0.00   1    8.00     0    0    0   240   0.0  1   1    7    0   0.000    0.000    0.000  1
 19   1    1  1 0 2    18  16   100  256  256     0.00000   6.92821 2.06588e-004   662  1151  -3.85   2.67  -0.09  -11.31   -1.98   78.61  1.200  0.000 0 2 0 2  1.000  1.000   3.12    0.00     0.00    0.00   1    8.00     0    0    0   240   0.0  1   1    7    0   0.000    0.000    0.000  1
 20   1    1  1 0 2    19  16   100  256  256     0.00000   6.92821 2.06588e-004   761  1324  -3.85   2.67  -0.09  -11.37   -2.06   77.41  1.200  0.000 0 2 0 2  1.000  1.000   3.12    0.00     0.00    0.00   1    8.00     0    0    0   240   0.0  1   1    7    0   0.000    0.000    0.000  1
 21   1    1  1 0 2    20  16   100  256  256     0.00000   6.92821 2.06588e-004   854  1485  -3.85   2.67  -0.09  -11.42   -2.14   76.22  1.200  0.000 0 2 0 2  1.000  1.000   3.12    0.00     0.00    0.00   1    8.00     0    0    0   240   0.0  1   1    7    0   0.000    0.000    0.000  1
 22   1    1  1 0 2    21  16   100  256  256     0.00000   6.92821 2.06588e-004   938  1630  -3.85   2.67  -0.09  -11.48   -2.22   75.02  1.200  0.000 0 2 0 2  1.000  1.000   3.12    0.00     0.00    0.00   1    8.00     0    0    0   240   0.0  1   1    7    0   0.000    0.000    0.000  1
 23   1    1  1 0 2    22  16   100  256  256     0.00000   6.92821 2.06588e-004   933  1621  -3.85   2.67  -0.09  -11.53   -2.30   73.83  1.200  0.000 0 2 0 2  1.000  1.000   3.12    0.00     0.00    0.00   1    8.00     0    0    0   240   0.0  1   1    7    0   0.000    0.000    0.000  1
 24   1    1  1 0 2    23  16   100  256  256     0.00000   6.92821 2.06588e-004  1000  1738  -3.85   2.67  -0.09  -11.59   -2.38   72.63  1.200  0.000 0 2 0 2  1.000  1.000   3.12    0.00     0.00    0.00   1    8.00     0    0    0   240   0.0  1   1    7    0   0.000    0.000    0.000  1
 25   1    1  1 0 2    24  16   100  256  256     0.00000   6.92821 2.06588e-004  1084  1884  -3.85   2.67  -0.09  -11.65   -2.46   71.43  1.200  0.000 0 2 0 2  1.000  1.000   3.12    0.00     0.00    0.00   1    8.00     0    0    0   240   0.0  1   1    7    0   0.000    0.000    0.000  1
 26   1    1  1 0 2    25  16   100  256  256     0.00000   6.92821 2.06588e-004  1138  1977  -3.85   2.67  -0.09  -11.70   -2.54   70.24  1.200  0.000 0 2 0 2  1.000  1.000   3.12    0.00     0.00    0.00   1    8.00     0    0    0   240   0.0  1   1    7    0   0.000    0.000    0.000  1
 27   1    1  1 0 2    26  16   100  256  256     0.00000   6.92821 2.06588e-004  1177  2046  -3.85   2.67  -0.09  -11.76   -2.62   69.04  1.200  0.000 0 2 0 2  1.000  1.000   3.12    0.00     0.00    0.00   1    8.00     0    0    0   240   0.0  1   1    7    0   0.000    0.000    0.000  1
 28   1    1  1 0 2    27  16   100  256  256     0.00000   6.92821 2.06588e-004  1204  2093  -3.85   2.67  -0.09  -11.81   -2.70   67.85  1.200  0.000 0 2 0 2  1.000  1.000   3.12    0.00     0.00    0.00   1    8.00     0    0    0   240   0.0  1   1    7    0   0.000    0.000    0.000  1
 29   1    1  1 0 2    28  16   100  256  256     0.00000   6.92821 2.06588e-004  1215  2112  -3.85   2.67  -0.09  -11.87   -2.78   66.65  1.200  0.000 0 2 0 2  1.000  1.000   3.12    0.00     0.00    0.00   1    8.00     0    0    0   240   0.0  1   1    7    0   0.000    0.000    0.000  1
 30   1    1  1 0 2    29  16   100  256  256     0.00000   6.92821 2.06588e-004  1242  2159  -3.85   2.67  -0.09  -11.93   -2.86   65.45  1.200  0.000 0 2 0 2  1.000  1.000   3.12    0.00     0.00    0.00   1    8.00     0    0    0   240   0.0  1   1    7    0   0.000    0.000    0.000  1
 31   1    1  1 0 2    30  16   100  256  256     0.00000   6.92821 2.06588e-004  1239  2154  -3.85   2.67  -0.09  -11.98   -2.94   64.26  1.200  0.000 0 2 0 2  1.000  1.000   3.12    0.00     0.00    0.00   1    8.00     0    0    0   240   0.0  1   1    7    0   0.000    0.000    0.000  1
 32   1    1  1 0 2    31  16   100  256  256     0.00000   6.92821 2.06588e-004  1220  2121  -3.85   2.67  -0.09  -12.04   -3.02   63.06  1.200  0.000 0 2 0 2  1.000  1.000   3.12    0.00     0.00    0.00   1    8.00     0    0    0   240   0.0  1   1    7    0   0.000    0.000    0.000  1
 33   1    1  1 0 2    32  16   100  256  256     0.00000   6.92821 2.06588e-004  1129  1962  -3.85   2.67  -0.09  -12.09   -3.10   61.87  1.200  0.000 0 2 0 2  1.000  1.000   3.12    0.00     0.00    0.00   1    8.00     0    0    0   240   0.0  1   1    7    0   0.000    0.000    0.000  1
 34   1    1  1 0 2    33  16   100  256  256     0.00000   6.92821 2.06588e-004  1012  1759  -3.85   2.67  -0.09  -12.15   -3.18   60.67  1.200  0.000 0 2 0 2  1.000  1.000   3.12    0.00     0.00    0.00   1    8.00     0    0    0   240   0.0  1   1    7    0   0.000    0.000    0.000  1
 35   1    1  1 0 2    34  16   100  256  256     0.00000   6.92821 2.06588e-004   953  1657  -3.85   2.67  -0.09  -12.21   -3.26   59.47  1.200  0.000 0 2 0 2  1.000  1.000   3.12    0.00     0.00    0.00   1    8.00     0    0    0   240   0.0  1   1    7    0   0.000    0.000    0.000  1
 36   1    1  1 0 2    35  16   100  256  256     0.00000   6.92821 2.06588e-004   938  1631  -3.85   2.67  -0.09  -12.26   -3.35   58.28  1.200  0.000 0 2 0 2  1.000  1.000   3.12    0.00     0.00    0.00   1    8.00     0    0    0   240   0.0  1   1    7    0   0.000    0.000    0.000  1
 37   1    1  1 0 2    36  16   100  256  256     0.00000   6.92821 2.06588e-004   930  1617  -3.85   2.67  -0.09  -12.32   -3.43   57.08  1.200  0.000 0 2 0 2  1.000  1.000   3.12    0.00     0.00    0.00   1    8.00     0    0    0   240   0.0  1   1    7    0   0.000    0.000    0.000  1
 38   1    1  1 0 2    37  16   100  256  256     0.00000   6.92821 2.06588e-004   917  1594  -3.85   2.67  -0.09  -12.37   -3.51   55.89  1.200  0.000 0 2 0 2  1.000  1.000   3.12    0.00     0.00    0.00   1    8.00     0    0    0   240   0.0  1   1    7    0   0.000    0.000    0.000  1
 39   1    1  1 0 2    38  16   100  256  256     0.00000   6.92821 2.06588e-004   971  1688  -3.85   2.67  -0.09  -12.43   -3.59   54.69  1.200  0.000 0 2 0 2  1.000  1.000   3.12    0.00     0.00    0.00   1    8.00     0    0    0   240   0.0  1   1    7    0   0.000    0.000    0.000  1
 40   1    1  1 0 2    39  16   100  256  256     0.00000   6.92821 2.06588e-004   992  1725  -3.85   2.67  -0.09  -12.49   -3.67   53.49  1.200  0.000 0 2 0 2  1.000  1.000   3.12    0.00     0.00    0.00   1    8.00     0    0    0   240   0.0  1   1    7    0   0.000    0.000    0.000  1
 41   1    1  1 0 2    40  16   100  256  256     0.00000   6.92821 2.06588e-004  1063  1848  -3.85   2.67  -0.09  -12.54   -3.75   52.30  1.200  0.000 0 2 0 2  1.000  1.000   3.12    0.00     0.00    0.00   1    8.00     0    0    0   240   0.0  1   1    7    0   0.000    0.000    0.000  1
 42   1    1  1 0 2    41  16   100  256  256     0.00000   6.92821 2.06588e-004  1097  1907  -3.85   2.67  -0.09  -12.60   -3.83   51.10  1.200  0.000 0 2 0 2  1.000  1.000   3.12    0.00     0.00    0.00   1    8.00     0    0    0   240   0.0  1   1    7    0   0.000    0.000    0.000  1
 43   1    1  1 0 2    42  16   100  256  256     0.00000   6.92821 2.06588e-004  1119  1945  -3.85   2.67  -0.09  -12.65   -3.91   49.91  1.200  0.000 0 2 0 2  1.000  1.000   3.12    0.00     0.00    0.00   1    8.00     0    0    0   240   0.0  1   1    7    0   0.000    0.000    0.000  1
 44   1    1  1 0 2    43  16   100  256  256     0.00000   6.92821 2.06588e-004  1222  2125  -3.85   2.67  -0.09  -12.71   -3.99   48.71  1.200  0.000 0 2 0 2  1.000  1.000   3.12    0.00     0.00    0.00   1    8.00     0    0    0   240   0.0  1   1    7    0   0.000    0.000    0.000  1
 45   1    1  1 0 2    44  16   100  256  256     0.00000   6.92821 2.06588e-004  1285  2233  -3.85   2.67  -0.09  -12.77   -4.07   47.51  1.200  0.000 0 2 0 2  1.000  1.000   3.12    0.00     0.00    0.00   1    8.00     0    0    0   240   0.0  1   1    7    0   0.000    0.000    0.000  1
 46   1    1  1 0 2    45  16   100  256  256     0.00000   6.92821 2.06588e-004  1252  2176  -3.85   2.67  -0.09  -12.82   -4.15   46.32  1.200  0.000 0 2 0 2  1.000  1.000   3.12    0.00     0.00    0.00   1    8.00     0    0    0   240   0.0  1   1    7    0   0.000    0.000    0.000  1
 47   1    1  1 0 2    46  16   100  256  256     0.00000   6.92821 2.06588e-004  1197  2081  -3.85   2.67  -0.09  -12.88   -4.23   45.12  1.200  0.000 0 2 0 2  1.000  1.000   3.12    0.00     0.00    0.00   1    8.00     0    0    0   240   0.0  1   1    7    0   0.000    0.000    0.000  1
 48   1    1  1 0 2    47  16   100  256  256     0.00000   6.92821 2.06588e-004  1217  2116  -3.85   2.67  -0.09  -12.93   -4.31   43.93  1.200  0.000 0 2 0 2  1.000  1.000   3.12    0.00     0.00    0.00   1    8.00     0    0    0   240   0.0  1   1    7    0   0.000    0.000    0.000  1
 49   1    1  1 0 2    48  16   100  256  256     0.00000   6.92821 2.06588e-004  1236  2148  -3.85   2.67  -0.09  -12.99   -4.39   42.73  1.200  0.000 0 2 0 2  1.000  1.000   3.12    0.00     0.00    0.00   1    8.00     0    0    0   240   0.0  1   1    7    0   0.000    0.000    0.000  1
 50   1    1  1 0 2    49  16   100  256  256     0.00000   6.92821 2.06588e-004  1258  2186  -3.85   2.67  -0.09  -13.05   -4.47   41.53  1.200  0.000 0 2 0 2  1.000  1.000   3.12    0.00     0.00    0.00   1    8.00     0    0    0   240   0.0  1   1    7    0   0.000    0.000    0.000  1
 51   1    1  1 0 2    50  16   100  256  256     0.00000   6.92821 2.06588e-004  1303  2266  -3.85   2.67  -0.09  -13.10   -4.55   40.34  1.200  0.000 0 2 0 2  1.000  1.000   3.12    0.00     0.00    0.00   1    8.00     0    0    0   240   0.0  1   1    7    0   0.000    0.000    0.000  1
 52   1    1  1 0 2    51  16   100  256  256     0.00000   6.92821 2.06588e-004  1337  2325  -3.85   2.67  -0.09  -13.16   -4.63   39.14  1.200  0.000 0 2 0 2  1.000  1.000   3.12    0.00     0.00    0.00   1    8.00     0    0    0   240   0.0  1   1    7    0   0.000    0.000    0.000  1
 53   1    1  1 0 2    52  16   100  256  256     0.00000   6.92821 2.06588e-004  1315  2286  -3.85   2.67  -0.09  -13.21   -4.71   37.95  1.200  0.000 0 2 0 2  1.000  1.000   3.12    0.00     0.00    0.00   1    8.00     0    0    0   240   0.0  1   1    7    0   0.000    0.000    0.000  1
 54   1    1  1 0 2    53  16   100  256  256     0.00000   6.92821 2.06588e-004  1285  2234  -3.85   2.67  -0.09  -13.27   -4.79   36.75  1.200  0.000 0 2 0 2  1.000  1.000   3.12    0.00     0.00    0.00   1    8.00     0    0    0   240   0.0  1   1    7    0   0.000    0.000    0.000  1
 55   1    1  1 0 2    54  16   100  256  256     0.00000   6.92821 2.06588e-004  1275  2216  -3.85   2.67  -0.09  -13.33   -4.87   35.55  1.200  0.000 0 2 0 2  1.000  1.000   3.12    0.00     0.00    0.00   1    8.00     0    0    0   240   0.0  1   1    7    0   0.000    0.000    0.000  1
 56   1    1  1 0 2    55  16   100  256  256     0.00000   6.92821 2.06588e-004  1251  2175  -3.85   2.67  -0.09  -13.38   -4.95   34.36  1.200  0.000 0 2 0 2  1.000  1.000   3.12    0.00     0.00    0.00   1    8.00     0    0    0   240   0.0  1   1    7    0   0.000    0.000    0.000  1
 57   1    1  1 0 2    56  16   100  256  256     0.00000   6.92821 2.06588e-004  1241  2158  -3.85   2.67  -0.09  -13.44   -5.03   33.16  1.200  0.000 0 2 0 2  1.000  1.000   3.12    0.00     0.00    0.00   1    8.00     0    0    0   240   0.0  1   1    7    0   0.000    0.000    0.000  1
 58   1    1  1 0 2    57  16   100  256  256     0.00000   6.92821 2.06588e-004  1267  2203  -3.85   2.67  -0.09  -13.49   -5.11   31.97  1.200  0.000 0 2 0 2  1.000  1.000   3.12    0.00     0.00    0.00   1    8.00     0    0    0   240   0.0  1   1    7    0   0.000    0.000    0.000  1
 59   1    1  1 0 2    58  16   100  256  256     0.00000   6.92821 2.06588e-004  1351  2348  -3.85   2.67  -0.09  -13.55   -5.19   30.77  1.200  0.000 0 2 0 2  1.000  1.000   3.12    0.00     0.00    0.00   1    8.00     0    0    0   240   0.0  1   1    7    0   0.000    0.000    0.000  1
 60   1    1  1 0 2    59  16   100  256  256     0.00000   6.92821 2.06588e-004  1471  2556  -3.85   2.67  -0.09  -13.61   -5.28   29.57  1.200  0.000 0 2 0 2  1.000  1.000   3.12    0.00     0.00    0.00   1    8.00     0    0    0   240   0.0  1   1    7    0   0.000    0.000    0.000  1
 61   1    1  1 0 2    60  16   100  256  256     0.00000   6.92821 2.06588e-004  1578  2744  -3.85   2.67  -0.09  -13.66   -5.36   28.38  1.200  0.000 0 2 0 2  1.000  1.000   3.12    0.00     0.00    0.00   1    8.00     0    0    0   240   0.0  1   1    7    0   0.000    0.000    0.000  1
 62   1    1  1 0 2    61  16   100  256  256     0.00000   6.92821 2.06588e-004  1693  2942  -3.85   2.67  -0.09  -13.72   -5.44   27.18  1.200  0.000 0 2 0 2  1.000  1.000   3.12    0.00     0.00    0.00   1    8.00     0    0    0   240   0.0  1   1    7    0   0.000    0.000    0.000  1
 63   1    1  1 0 2    62  16   100  256  256     0.00000   6.92821 2.06588e-004  1758  3056  -3.85   2.67  -0.09  -13.77   -5.52   25.99  1.200  0.000 0 2 0 2  1.000  1.000   3.12    0.00     0.00    0.00   1    8.00     0    0    0   240   0.0  1   1    7    0   0.000    0.000    0.000  1
 64   1    1  1 0 2    63  16   100  256  256     0.00000   6.92821 2.06588e-004  1762  3062  -3.85   2.67  -0.09  -13.83   -5.60   24.79  1.200  0.000 0 2 0 2  1.000  1.000   3.12    0.00     0.00    0.00   1    8.00     0    0    0   240   0.0  1   1    7    0   0.000    0.000    0.000  1
 65   1    1  1 0 2    64  16   100  256  256     0.00000   6.92821 2.06588e-004  1664  2892  -3.85   2.67  -0.09  -13.89   -5.68   23.59  1.200  0.000 0 2 0 2  1.000  1.000   3.12    0.00     0.00    0.00   1    8.00     0    0    0   240   0.0  1   1    7    0   0.000    0.000    0.000  1
 66   1    1  1 0 2    65  16   100  256  256     0.00000   6.92821 2.06588e-004  1684  2928  -3.85   2.67  -0.09  -13.94   -5.76   22.40  1.200  0.000 0 2 0 2  1.000  1.000   3.12    0.00     0.00    0.00   1    8.00     0    0    0   240   0.0  1   1    7    0   0.000    0.000    0.000  1
 67   1    1  1 0 2    66  16   100  256  256     0.00000   6.92821 2.06588e-004  1606  2791  -3.85   2.67  -0.09  -14.00   -5.84   21.20  1.200  0.000 0 2 0 2  1.000  1.000   3.12    0.00     0.00    0.00   1    8.00     0    0    0   240   0.0  1   1    7    0   0.000    0.000    0.000  1
 68   1    1  1 0 2    67  16   100  256  256     0.00000   6.92821 2.06588e-004  1471  2557  -3.85   2.67  -0.09  -14.05   -5.92   20.01  1.200  0.000 0 2 0 2  1.000  1.000   3.12    0.00     0.00    0.00   1    8.00     0    0    0   240   0.0  1   1    7    0   0.000    0.000    0.000  1
 69   1    1  1 0 2    68  16   100  256  256     0.00000   6.92821 2.06588e-004  1165  2025  -3.85   2.67  -0.09  -14.11   -6.00   18.81  1.200  0.000 0 2 0 2  1.000  1.000   3.12    0.00     0.00    0.00   1    8.00     0    0    0   240   0.0  1   1    7    0   0.000    0.000    0.000  1
 70   1    1  1 0 2    69  16   100  256  256     0.00000   6.92821 2.06588e-004  1102  1915  -3.85   2.67  -0.09  -14.17   -6.08   17.61  1.200  0.000 0 2 0 2  1.000  1.000   3.12    0.00     0.00    0.00   1    8.00     0    0    0   240   0.0  1   1    7    0   0.000    0.000    0.000  1
 71   1    1  1 0 2    70  16   100  256  256     0.00000   6.92821 2.06588e-004  1091  1897  -3.85   2.67  -0.09  -14.22   -6.16   16.42  1.200  0.000 0 2 0 2  1.000  1.000   3.12    0.00     0.00    0.00   1    8.00     0    0    0   240   0.0  1   1    7    0   0.000    0.000    0.000  1
 72   1    1  1 0 2    71  16   100  256  256     0.00000   6.92821 2.06588e-004  1137  1976  -3.85   2.67  -0.09  -14.28   -6.24   15.22  1.200  0.000 0 2 0 2  1.000  1.000   3.12    0.00     0.00    0.00   1    8.00     0    0    0   240   0.0  1   1    7    0   0.000    0.000    0.000  1
 73   1    1  1 0 2    72  16   100  256  256     0.00000   6.92821 2.06588e-004  1177  2046  -3.85   2.67  -0.09  -14.33   -6.32   14.03  1.200  0.000 0 2 0 2  1.000  1.000   3.12    0.00     0.00    0.00   1    8.00     0    0    0   240   0.0  1   1    7    0   0.000    0.000    0.000  1
 74   1    1  1 0 2    73  16   100  256  256     0.00000   6.92821 2.06588e-004  1340  2330  -3.85   2.67  -0.09  -14.39   -6.40   12.83  1.200  0.000 0 2 0 2  1.000  1.000   3.12    0.00     0.00    0.00   1    8.00     0    0    0   240   0.0  1   1    7    0   0.000    0.000    0.000  1
 75   1    1  1 0 2    74  16   100  256  256     0.00000   6.92821 2.06588e-004  1203  2091  -3.85   2.67  -0.09  -14.45   -6.48   11.63  1.200  0.000 0 2 0 2  1.000  1.000   3.12    0.00     0.00    0.00   1    8.00     0    0    0   240   0.0  1   1    7    0   0.000    0.000    0.000  1
 76   1    1  1 0 2    75  16   100  256  256     0.00000   6.92821 2.06588e-004  1071  1863  -3.85   2.67  -0.09  -14.50   -6.56   10.44  1.200  0.000 0 2 0 2  1.000  1.000   3.12    0.00     0.00    0.00   1    8.00     0    0    0   240   0.0  1   1    7    0   0.000    0.000    0.000  1
 77   1    1  1 0 2    76  16   100  256  256     0.00000   6.92821 2.06588e-004  1092  1898  -3.85   2.67  -0.09  -14.56   -6.64    9.24  1.200  0.000 0 2 0 2  1.000  1.000   3.12    0.00     0.00    0.00   1    8.00     0    0    0   240   0.0  1   1    7    0   0.000    0.000    0.000  1
 78   1    1  1 0 2    77  16   100  256  256     0.00000   6.92821 2.06588e-004  1097  1906  -3.85   2.67  -0.09  -14.61   -6.72    8.05  1.200  0.000 0 2 0 2  1.000  1.000   3.12    0.00     0.00    0.00   1    8.00     0    0    0   240   0.0  1   1    7    0   0.000    0.000    0.000  1
 79   1    1  1 0 2    78  16   100  256  256     0.00000   6.92821 2.06588e-004  1088  1891  -3.85   2.67  -0.09  -14.67   -6.80    6.85  1.200  0.000 0 2 0 2  1.000  1.000   3.12    0.00     0.00    0.00   1    8.00     0    0    0   240   0.0  1   1    7    0   0.000    0.000    0.000  1
 80   1    1  1 0 2    79  16   100  256  256     0.00000   6.92821 2.06588e-004  1089  1893  -3.85   2.67  -0.09  -14.73   -6.88    5.65  1.200  0.000 0 2 0 2  1.000  1.000   3.12    0.00     0.00    0.00   1    8.00     0    0    0   240   0.0  1   1    7    0   0.000    0.000    0.000  1
 81   1    1  1 0 2    80  16   100  256  256     0.00000   6.92821 2.06588e-004  1076  1871  -3.85   2.67  -0.09  -14.78   -6.96    4.46  1.200  0.000 0 2 0 2  1.000  1.000   3.12    0.00     0.00    0.00   1    8.00     0    0    0   240   0.0  1   1    7    0   0.000    0.000    0.000  1
 82   1    1  1 0 2    81  16   100  256  256     0.00000   6.92821 2.06588e-004  1065  1851  -3.85   2.67  -0.09  -14.84   -7.04    3.26  1.200  0.000 0 2 0 2  1.000  1.000   3.12    0.00     0.00    0.00   1    8.00     0    0    0   240   0.0  1   1    7    0   0.000    0.000    0.000  1
 83   1    1  1 0 2    82  16   100  256  256     0.00000   6.92821 2.06588e-004  1083  1883  -3.85   2.67  -0.09  -14.89   -7.12    2.07  1.200  0.000 0 2 0 2  1.000  1.000   3.12    0.00     0.00    0.00   1    8.00     0    0    0   240   0.0  1   1    7    0   0.000    0.000    0.000  1
 84   1    1  1 0 2    83  16   100  256  256     0.00000   6.92821 2.06588e-004  1077  1872  -3.85   2.67  -0.09  -14.95   -7.20    0.87  1.200  0.000 0 2 0 2  1.000  1.000   3.12    0.00     0.00    0.00   1    8.00     0    0    0   240   0.0  1   1    7    0   0.000    0.000    0.000  1
