# === DATA DESCRIPTION FILE ======================================================
#
# CAUTION - Investigational device.
# Limited by Federal Law to investigational use.
#
#
# CLINICAL TRYOUT             Research image export tool     V4.2
#
# === GENERAL INFORMATION ========================================================
#
.    Protocol name                      :   WIP MPrageADNIsag SENSE
.    Series Type                        :   Image   MRSERIES
.    Acquisition nr                     :   3
.    Reconstruction nr                  :   1
.    Scan Duration [sec]                :   356
.    Max. number of cardiac phases      :   1
.    Max. number of echoes              :   1
.    Max. number of slices/locations    :   170
.    Max. number of dynamics            :   1
.    Max. number of mixes               :   1
.    Patient position                   :   Head First Supine
.    Preparation direction              :   Anterior-Posterior
.    Technique                          :   T1TFE
.    Scan resolution  (x, y)            :   256  256
.    Scan mode                          :   3D
.    Repetition time [ms]               :   6.747  
.    FOV (ap,fh,rl) [mm]                :   240.000  256.000  204.000
.    Water Fat shift [pixels]           :   1.802
.    Angulation midslice(ap,fh,rl)[degr]:   -5.928  4.009  -0.000
.    Off Centre midslice(ap,fh,rl) [mm] :   -10.790  11.761  -0.926
.    Flow compensation <0=no 1=yes> ?   :   0
.    Presaturation     <0=no 1=yes> ?   :   0
.    Phase encoding velocity [cm/sec]   :   0.000000  0.000000  0.000000
.    MTC               <0=no 1=yes> ?   :   0
.    SPIR              <0=no 1=yes> ?   :   0
.    EPI factor        <0,1=no EPI>     :   1
.    Dynamic scan      <0=no 1=yes> ?   :   0
.    Diffusion         <0=no 1=yes> ?   :   0
.    Diffusion echo time [ms]           :   0.0000
.    Max. number of diffusion values    :   1
.    Max. number of gradient orients    :   1
.    Number of label types   <0=no ASL> :   0
#
# === PIXEL VALUES =============================================================
#  PV = pixel value in REC file, FP = floating point value, DV = displayed value on console
#  RS = rescale slope,           RI = rescale intercept,    SS = scale slope
#  DV = PV * RS + RI             FP = DV / (RS * SS)
#
# === IMAGE INFORMATION DEFINITION =============================================
#  The rest of this file contains ONE line per image, this line contains the following information:
#
#  slice number                             (integer)
#  echo number                              (integer)
#  dynamic scan number                      (integer)
#  cardiac phase number                     (integer)
#  image_type_mr                            (integer)
#  scanning sequence                        (integer)
#  index in REC file (in images)            (integer)
#  image pixel size (in bits)               (integer)
#  scan percentage                          (integer)
#  recon resolution (x y)                   (2*integer)
#  rescale intercept                        (float)
#  rescale slope                            (float)
#  scale slope                              (float)
#  window center                            (integer)
#  window width                             (integer)
#  image angulation (ap,fh,rl in degrees )  (3*float)
#  image offcentre (ap,fh,rl in mm )        (3*float)
#  slice thickness (in mm )                 (float)
#  slice gap (in mm )                       (float)
#  image_display_orientation                (integer)
#  slice orientation ( TRA/SAG/COR )        (integer)
#  fmri_status_indication                   (integer)
#  image_type_ed_es  (end diast/end syst)   (integer)
#  pixel spacing (x,y) (in mm)              (2*float)
#  echo_time                                (float)
#  dyn_scan_begin_time                      (float)
#  trigger_time                             (float)
#  diffusion_b_factor                       (float)
#  number of averages                       (integer)
#  image_flip_angle (in degrees)            (float)
#  cardiac frequency   (bpm)                (integer)
#  minimum RR-interval (in ms)              (integer)
#  maximum RR-interval (in ms)              (integer)
#  TURBO factor  <0=no turbo>               (integer)
#  Inversion delay (in ms)                  (float)
#  diffusion b value number    (imagekey!)  (integer)
#  gradient orientation number (imagekey!)  (integer)
#  contrast type                            (string)
#  diffusion anisotropy type                (string)
#  diffusion (ap, fh, rl)                   (3*float)
#  label type (ASL)            (imagekey!)  (integer)
#
# === IMAGE INFORMATION ==========================================================
#  sl ec  dyn ph ty    idx pix scan% rec size                (re)scale              window        angulation              offcentre        thick   gap   info      spacing     echo     dtime   ttime    diff  avg  flip    freq   RR-int  turbo delay b grad cont anis         diffusion       L.ty

  1   1    1  1 0 2     0  16   100  256  256     0.00000   6.34994 2.40869e-004     6    10  -5.93   4.01  -0.00   -3.70   22.21   99.69  1.200  0.000 0 2 0 2  1.000  1.000   3.11    0.00     0.00    0.00   1    8.00     0    0    0   240   0.0  1   1    7    0   0.000    0.000    0.000  1
  2   1    1  1 0 2     1  16   100  256  256     0.00000   6.34994 2.40869e-004     6    10  -5.93   4.01  -0.00   -3.78   22.08   98.49  1.200  0.000 0 2 0 2  1.000  1.000   3.11    0.00     0.00    0.00   1    8.00     0    0    0   240   0.0  1   1    7    0   0.000    0.000    0.000  1
  3   1    1  1 0 2     2  16   100  256  256     0.00000   6.34994 2.40869e-004     6    11  -5.93   4.01  -0.00   -3.87   21.96   97.30  1.200  0.000 0 2 0 2  1.000  1.000   3.11    0.00     0.00    0.00   1    8.00     0    0    0   240   0.0  1   1    7    0   0.000    0.000    0.000  1
  4   1    1  1 0 2     3  16   100  256  256     0.00000   6.34994 2.40869e-004    10    17  -5.93   4.01  -0.00   -3.95   21.84   96.11  1.200  0.000 0 2 0 2  1.000  1.000   3.11    0.00     0.00    0.00   1    8.00     0    0    0   240   0.0  1   1    7    0   0.000    0.000    0.000  1
  5   1    1  1 0 2     4  16   100  256  256     0.00000   6.34994 2.40869e-004    16    27  -5.93   4.01  -0.00   -4.04   21.71   94.92  1.200  0.000 0 2 0 2  1.000  1.000   3.11    0.00     0.00    0.00   1    8.00     0    0    0   240   0.0  1   1    7    0   0.000    0.000    0.000  1
  6   1    1  1 0 2     5  16   100  256  256     0.00000   6.34994 2.40869e-004    22    38  -5.93   4.01  -0.00   -4.12   21.59   93.73  1.200  0.000 0 2 0 2  1.000  1.000   3.11    0.00     0.00    0.00   1    8.00     0    0    0   240   0.0  1   1    7    0   0.000    0.000    0.000  1
  7   1    1  1 0 2     6  16   100  256  256     0.00000   6.34994 2.40869e-004    25    44  -5.93   4.01  -0.00   -4.20   21.47   92.54  1.200  0.000 0 2 0 2  1.000  1.000   3.11    0.00     0.00    0.00   1    8.00     0    0    0   240   0.0  1   1    7    0   0.000    0.000    0.000  1
  8   1    1  1 0 2     7  16   100  256  256     0.00000   6.34994 2.40869e-004    25    44  -5.93   4.01  -0.00   -4.29   21.34   91.35  1.200  0.000 0 2 0 2  1.000  1.000   3.11    0.00     0.00    0.00   1    8.00     0    0    0   240   0.0  1   1    7    0   0.000    0.000    0.000  1
  9   1    1  1 0 2     8  16   100  256  256     0.00000   6.34994 2.40869e-004    26    45  -5.93   4.01  -0.00   -4.37   21.22   90.16  1.200  0.000 0 2 0 2  1.000  1.000   3.11    0.00     0.00    0.00   1    8.00     0    0    0   240   0.0  1   1    7    0   0.000    0.000    0.000  1
 10   1    1  1 0 2     9  16   100  256  256     0.00000   6.34994 2.40869e-004    28    49  -5.93   4.01  -0.00   -4.46   21.09   88.97  1.200  0.000 0 2 0 2  1.000  1.000   3.11    0.00     0.00    0.00   1    8.00     0    0    0   240   0.0  1   1    7    0   0.000    0.000    0.000  1
 11   1    1  1 0 2    10  16   100  256  256     0.00000   6.34994 2.40869e-004    31    54  -5.93   4.01  -0.00   -4.54   20.97   87.78  1.200  0.000 0 2 0 2  1.000  1.000   3.11    0.00     0.00    0.00   1    8.00     0    0    0   240   0.0  1   1    7    0   0.000    0.000    0.000  1
 12   1    1  1 0 2    11  16   100  256  256     0.00000   6.34994 2.40869e-004    31    54  -5.93   4.01  -0.00   -4.62   20.85   86.59  1.200  0.000 0 2 0 2  1.000  1.000   3.11    0.00     0.00    0.00   1    8.00     0    0    0   240   0.0  1   1    7    0   0.000    0.000    0.000  1
 13   1    1  1 0 2    12  16   100  256  256     0.00000   6.34994 2.40869e-004    36    62  -5.93   4.01  -0.00   -4.71   20.72   85.40  1.200  0.000 0 2 0 2  1.000  1.000   3.11    0.00     0.00    0.00   1    8.00     0    0    0   240   0.0  1   1    7    0   0.000    0.000    0.000  1
 14   1    1  1 0 2    13  16   100  256  256     0.00000   6.34994 2.40869e-004    96   167  -5.93   4.01  -0.00   -4.79   20.60   84.21  1.200  0.000 0 2 0 2  1.000  1.000   3.11    0.00     0.00    0.00   1    8.00     0    0    0   240   0.0  1   1    7    0   0.000    0.000    0.000  1
 15   1    1  1 0 2    14  16   100  256  256     0.00000   6.34994 2.40869e-004   306   532  -5.93   4.01  -0.00   -4.87   20.48   83.02  1.200  0.000 0 2 0 2  1.000  1.000   3.11    0.00     0.00    0.00   1    8.00     0    0    0   240   0.0  1   1    7    0   0.000    0.000    0.000  1
 16   1    1  1 0 2    15  16   100  256  256     0.00000   6.34994 2.40869e-004   330   573  -5.93   4.01  -0.00   -4.96   20.35   81.83  1.200  0.000 0 2 0 2  1.000  1.000   3.11    0.00     0.00    0.00   1    8.00     0    0    0   240   0.0  1   1    7    0   0.000    0.000    0.000  1
 17   1    1  1 0 2    16  16   100  256  256     0.00000   6.34994 2.40869e-004   304   529  -5.93   4.01  -0.00   -5.04   20.23   80.63  1.200  0.000 0 2 0 2  1.000  1.000   3.11    0.00     0.00    0.00   1    8.00     0    0    0   240   0.0  1   1    7    0   0.000    0.000    0.000  1
 18   1    1  1 0 2    17  16   100  256  256     0.00000   6.34994 2.40869e-004   336   584  -5.93   4.01  -0.00   -5.13   20.11   79.44  1.200  0.000 0 2 0 2  1.000  1.000   3.11    0.00     0.00    0.00   1    8.00     0    0    0   240   0.0  1   1    7    0   0.000    0.000    0.000  1
 19   1    1  1 0 2    18  16   100  256  256     0.00000   6.34994 2.40869e-004   433   753  -5.93   4.01  -0.00   -5.21   19.98   78.25  1.200  0.000 0 2 0 2  1.000  1.000   3.11    0.00     0.00    0.00   1    8.00     0    0    0   240   0.0  1   1    7    0   0.000    0.000    0.000  1
 20   1    1  1 0 2    19  16   100  256  256     0.00000   6.34994 2.40869e-004   505   878  -5.93   4.01  -0.00   -5.29   19.86   77.06  1.200  0.000 0 2 0 2  1.000  1.000   3.11    0.00     0.00    0.00   1    8.00     0    0    0   240   0.0  1   1    7    0   0.000    0.000    0.000  1
 21   1    1  1 0 2    20  16   100  256  256     0.00000   6.34994 2.40869e-004   515   896  -5.93   4.01  -0.00   -5.38   19.73   75.87  1.200  0.000 0 2 0 2  1.000  1.000   3.11    0.00     0.00    0.00   1    8.00     0    0    0   240   0.0  1   1    7    0   0.000    0.000    0.000  1
 22   1    1  1 0 2    21  16   100  256  256     0.00000   6.34994 2.40869e-004   508   884  -5.93   4.01  -0.00   -5.46   19.61   74.68  1.200  0.000 0 2 0 2  1.000  1.000   3.11    0.00     0.00    0.00   1    8.00     0    0    0   240   0.0  1   1    7    0   0.000    0.000    0.000  1
 23   1    1  1 0 2    22  16   100  256  256     0.00000   6.34994 2.40869e-004   489   850  -5.93   4.01  -0.00   -5.55   19.49   73.49  1.200  0.000 0 2 0 2  1.000  1.000   3.11    0.00     0.00    0.00   1    8.00     0    0    0   240   0.0  1   1    7    0   0.000    0.000    0.000  1
 24   1    1  1 0 2    23  16   100  256  256     0.00000   6.34994 2.40869e-004   531   923  -5.93   4.01  -0.00   -5.63   19.36   72.30  1.200  0.000 0 2 0 2  1.000  1.000   3.11    0.00     0.00    0.00   1    8.00     0    0    0   240   0.0  1   1    7    0   0.000    0.000    0.000  1
 25   1    1  1 0 2    24  16   100  256  256     0.00000   6.34994 2.40869e-004   560   974  -5.93   4.01  -0.00   -5.71   19.24   71.11  1.200  0.000 0 2 0 2  1.000  1.000   3.11    0.00     0.00    0.00   1    8.00     0    0    0   240   0.0  1   1    7    0   0.000    0.000    0.000  1
 26   1    1  1 0 2    25  16   100  256  256     0.00000   6.34994 2.40869e-004   624  1085  -5.93   4.01  -0.00   -5.80   19.12   69.92  1.200  0.000 0 2 0 2  1.000  1.000   3.11    0.00     0.00    0.00   1    8.00     0    0    0   240   0.0  1   1    7    0   0.000    0.000    0.000  1
 27   1    1  1 0 2    26  16   100  256  256     0.00000   6.34994 2.40869e-004   741  1289  -5.93   4.01  -0.00   -5.88   18.99   68.73  1.200  0.000 0 2 0 2  1.000  1.000   3.11    0.00     0.00    0.00   1    8.00     0    0    0   240   0.0  1   1    7    0   0.000    0.000    0.000  1
 28   1    1  1 0 2    27  16   100  256  256     0.00000   6.34994 2.40869e-004   738  1283  -5.93   4.01  -0.00   -5.97   18.87   67.54  1.200  0.000 0 2 0 2  1.000  1.000   3.11    0.00     0.00    0.00   1    8.00     0    0    0   240   0.0  1   1    7    0   0.000    0.000    0.000  1
 29   1    1  1 0 2    28  16   100  256  256     0.00000   6.34994 2.40869e-004   880  1529  -5.93   4.01  -0.00   -6.05   18.75   66.35  1.200  0.000 0 2 0 2  1.000  1.000   3.11    0.00     0.00    0.00   1    8.00     0    0    0   240   0.0  1   1    7    0   0.000    0.000    0.000  1
 30   1    1  1 0 2    29  16   100  256  256     0.00000   6.34994 2.40869e-004   943  1638  -5.93   4.01  -0.00   -6.13   18.62   65.16  1.200  0.000 0 2 0 2  1.000  1.000   3.11    0.00     0.00    0.00   1    8.00     0    0    0   240   0.0  1   1    7    0   0.000    0.000    0.000  1
 31   1    1  1 0 2    30  16   100  256  256     0.00000   6.34994 2.40869e-004   975  1694  -5.93   4.01  -0.00   -6.22   18.50   63.97  1.200  0.000 0 2 0 2  1.000  1.000   3.11    0.00     0.00    0.00   1    8.00     0    0    0   240   0.0  1   1    7    0   0.000    0.000    0.000  1
 32   1    1  1 0 2    31  16   100  256  256     0.00000   6.34994 2.40869e-004   997  1732  -5.93   4.01  -0.00   -6.30   18.37   62.77  1.200  0.000 0 2 0 2  1.000  1.000   3.11    0.00     0.00    0.00   1    8.00     0    0    0   240   0.0  1   1    7    0   0.000    0.000    0.000  1
 33   1    1  1 0 2    32  16   100  256  256     0.00000   6.34994 2.40869e-004  1044  1816  -5.93   4.01  -0.00   -6.38   18.25   61.58  1.200  0.000 0 2 0 2  1.000  1.000   3.11    0.00     0.00    0.00   1    8.00     0    0    0   240   0.0  1   1    7    0   0.000    0.000    0.000  1
 34   1    1  1 0 2    33  16   100  256  256     0.00000   6.34994 2.40869e-004  1102  1915  -5.93   4.01  -0.00   -6.47   18.13   60.39  1.200  0.000 0 2 0 2  1.000  1.000   3.11    0.00     0.00    0.00   1    8.00     0    0    0   240   0.0  1   1    7    0   0.000    0.000    0.000  1
 35   1    1  1 0 2    34  16   100  256  256     0.00000   6.34994 2.40869e-004  1133  1970  -5.93   4.01  -0.00   -6.55   18.00   59.20  1.200  0.000 0 2 0 2  1.000  1.000   3.11    0.00     0.00    0.00   1    8.00     0    0    0   240   0.0  1   1    7    0   0.000    0.000    0.000  1
 36   1    1  1 0 2    35  16   100  256  256     0.00000   6.34994 2.40869e-004  1088  1891  -5.93   4.01  -0.00   -6.64   17.88   58.01  1.200  0.000 0 2 0 2  1.000  1.000   3.11    0.00     0.00    0.00   1    8.00     0    0    0   240   0.0  1   1    7    0   0.000    0.000    0.000  1
 37   1    1  1 0 2    36  16   100  256  256     0.00000   6.34994 2.40869e-004  1045  1816  -5.93   4.01  -0.00   -6.72   17.76   56.82  1.200  0.000 0 2 0 2  1.000  1.000   3.11    0.00     0.00    0.00   1    8.00     0    0    0   240   0.0  1   1    7    0   0.000    0.000    0.000  1
 38   1    1  1 0 2    37  16   100  256  256     0.00000   6.34994 2.40869e-004  1096  1905  -5.93   4.01  -0.00   -6.80   17.63   55.63  1.200  0.000 0 2 0 2  1.000  1.000   3.11    0.00     0.00    0.00   1    8.00     0    0    0   240   0.0  1   1    7    0   0.000    0.000    0.000  1
 39   1    1  1 0 2    38  16   100  256  256     0.00000   6.34994 2.40869e-004  1064  1849  -5.93   4.01  -0.00   -6.89   17.51   54.44  1.200  0.000 0 2 0 2  1.000  1.000   3.11    0.00     0.00    0.00   1    8.00     0    0    0   240   0.0  1   1    7    0   0.000    0.000    0.000  1
 40   1    1  1 0 2    39  16   100  256  256     0.00000   6.34994 2.40869e-004  1115  1939  -5.93   4.01  -0.00   -6.97   17.39   53.25  1.200  0.000 0 2 0 2  1.000  1.000   3.11    0.00     0.00    0.00   1    8.00     0    0    0   240   0.0  1   1    7    0   0.000    0.000    0.000  1
 41   1    1  1 0 2    40  16   100  256  256     0.00000   6.34994 2.40869e-004  1116  1939  -5.93   4.01  -0.00   -7.06   17.26   52.06  1.200  0.000 0 2 0 2  1.000  1.000   3.11    0.00     0.00    0.00   1    8.00     0    0    0   240   0.0  1   1    7    0   0.000    0.000    0.000  1
 42   1    1  1 0 2    41  16   100  256  256     0.00000   6.34994 2.40869e-004  1108  1926  -5.93   4.01  -0.00   -7.14   17.14   50.87  1.200  0.000 0 2 0 2  1.000  1.000   3.11    0.00     0.00    0.00   1    8.00     0    0    0   240   0.0  1   1    7    0   0.000    0.000    0.000  1
 43   1    1  1 0 2    42  16   100  256  256     0.00000   6.34994 2.40869e-004  1077  1872  -5.93   4.01  -0.00   -7.22   17.02   49.68  1.200  0.000 0 2 0 2  1.000  1.000   3.11    0.00     0.00    0.00   1    8.00     0    0    0   240   0.0  1   1    7    0   0.000    0.000    0.000  1
 44   1    1  1 0 2    43  16   100  256  256     0.00000   6.34994 2.40869e-004  1069  1858  -5.93   4.01  -0.00   -7.31   16.89   48.49  1.200  0.000 0 2 0 2  1.000  1.000   3.11    0.00     0.00    0.00   1    8.00     0    0    0   240   0.0  1   1    7    0   0.000    0.000    0.000  1
 45   1    1  1 0 2    44  16   100  256  256     0.00000   6.34994 2.40869e-004  1057  1838  -5.93   4.01  -0.00   -7.39   16.77   47.30  1.200  0.000 0 2 0 2  1.000  1.000   3.11    0.00     0.00    0.00   1    8.00     0    0    0   240   0.0  1   1    7    0   0.000    0.000    0.000  1
 46   1    1  1 0 2    45  16   100  256  256     0.00000   6.34994 2.40869e-004  1065  1851  -5.93   4.01  -0.00   -7.48   16.64   46.11  1.200  0.000 0 2 0 2  1.000  1.000   3.11    0.00     0.00    0.00   1    8.00     0    0    0   240   0.0  1   1    7    0   0.000    0.000    0.000  1
 47   1    1  1 0 2    46  16   100  256  256     0.00000   6.34994 2.40869e-004  1054  1832  -5.93   4.01  -0.00   -7.56   16.52   44.91  1.200  0.000 0 2 0 2  1.000  1.000   3.11    0.00     0.00    0.00   1    8.00     0    0    0   240   0.0  1   1    7    0   0.000    0.000    0.000  1
 48   1    1  1 0 2    47  16   100  256  256     0.00000   6.34994 2.40869e-004  1102  1915  -5.93   4.01  -0.00   -7.64   16.40   43.72  1.200  0.000 0 2 0 2  1.000  1.000   3.11    0.00     0.00    0.00   1    8.00     0    0    0   240   0.0  1   1    7    0   0.000    0.000    0.000  1
 49   1    1  1 0 2    48  16   100  256  256     0.00000   6.34994 2.40869e-004  1107  1924  -5.93   4.01  -0.00   -7.73   16.27   42.53  1.200  0.000 0 2 0 2  1.000  1.000   3.11    0.00     0.00    0.00   1    8.00     0    0    0   240   0.0  1   1    7    0   0.000    0.000    0.000  1
 50   1    1  1 0 2    49  16   100  256  256     0.00000   6.34994 2.40869e-004  1139  1980  -5.93   4.01  -0.00   -7.81   16.15   41.34  1.200  0.000 0 2 0 2  1.000  1.000   3.11    0.00     0.00    0.00   1    8.00     0    0    0   240   0.0  1   1    7    0   0.000    0.000    0.000  1
 51   1    1  1 0 2    50  16   100  256  256     0.00000   6.34994 2.40869e-004  1146  1991  -5.93   4.01  -0.00   -7.90   16.03   40.15  1.200  0.000 0 2 0 2  1.000  1.000   3.11    0.00     0.00    0.00   1    8.00     0    0    0   240   0.0  1   1    7    0   0.000    0.000    0.000  1
 52   1    1  1 0 2    51  16   100  256  256     0.00000   6.34994 2.40869e-004  1166  2026  -5.93   4.01  -0.00   -7.98   15.90   38.96  1.200  0.000 0 2 0 2  1.000  1.000   3.11    0.00     0.00    0.00   1    8.00     0    0    0   240   0.0  1   1    7    0   0.000    0.000    0.000  1
 53   1    1  1 0 2    52  16   100  256  256     0.00000   6.34994 2.40869e-004  1202  2089  -5.93   4.01  -0.00   -8.06   15.78   37.77  1.200  0.000 0 2 0 2  1.000  1.000   3.11    0.00     0.00    0.00   1    8.00     0    0    0   240   0.0  1   1    7    0   0.000    0.000    0.000  1
 54   1    1  1 0 2    53  16   100  256  256     0.00000   6.34994 2.40869e-004  1212  2107  -5.93   4.01  -0.00   -8.15   15.66   36.58  1.200  0.000 0 2 0 2  1.000  1.000   3.11    0.00     0.00    0.00   1    8.00     0    0    0   240   0.0  1   1    7    0   0.000    0.000    0.000  1
 55   1    1  1 0 2    54  16   100  256  256     0.00000   6.34994 2.40869e-004  1211  2106  -5.93   4.01  -0.00   -8.23   15.53   35.39  1.200  0.000 0 2 0 2  1.000  1.000   3.11    0.00     0.00    0.00   1    8.00     0    0    0   240   0.0  1   1    7    0   0.000    0.000    0.000  1
 56   1    1  1 0 2    55  16   100  256  256     0.00000   6.34994 2.40869e-004  1214  2111  -5.93   4.01  -0.00   -8.31   15.41   34.20  1.200  0.000 0 2 0 2  1.000  1.000   3.11    0.00     0.00    0.00   1    8.00     0    0    0   240   0.0  1   1    7    0   0.000    0.000    0.000  1
 57   1    1  1 0 2    56  16   100  256  256     0.00000   6.34994 2.40869e-004  1229  2136  -5.93   4.01  -0.00   -8.40   15.28   33.01  1.200  0.000 0 2 0 2  1.000  1.000   3.11    0.00     0.00    0.00   1    8.00     0    0    0   240   0.0  1   1    7    0   0.000    0.000    0.000  1
 58   1    1  1 0 2    57  16   100  256  256     0.00000   6.34994 2.40869e-004  1226  2131  -5.93   4.01  -0.00   -8.48   15.16   31.82  1.200  0.000 0 2 0 2  1.000  1.000   3.11    0.00     0.00    0.00   1    8.00     0    0    0   240   0.0  1   1    7    0   0.000    0.000    0.000  1
 59   1    1  1 0 2    58  16   100  256  256     0.00000   6.34994 2.40869e-004  1229  2137  -5.93   4.01  -0.00   -8.57   15.04   30.63  1.200  0.000 0 2 0 2  1.000  1.000   3.11    0.00     0.00    0.00   1    8.00     0    0    0   240   0.0  1   1    7    0   0.000    0.000    0.000  1
 60   1    1  1 0 2    59  16   100  256  256     0.00000   6.34994 2.40869e-004  1217  2116  -5.93   4.01  -0.00   -8.65   14.91   29.44  1.200  0.000 0 2 0 2  1.000  1.000   3.11    0.00     0.00    0.00   1    8.00     0    0    0   240   0.0  1   1    7    0   0.000    0.000    0.000  1
 61   1    1  1 0 2    60  16   100  256  256     0.00000   6.34994 2.40869e-004  1285  2233  -5.93   4.01  -0.00   -8.73   14.79   28.25  1.200  0.000 0 2 0 2  1.000  1.000   3.11    0.00     0.00    0.00   1    8.00     0    0    0   240   0.0  1   1    7    0   0.000    0.000    0.000  1
 62   1    1  1 0 2    61  16   100  256  256     0.00000   6.34994 2.40869e-004  1385  2407  -5.93   4.01  -0.00   -8.82   14.67   27.05  1.200  0.000 0 2 0 2  1.000  1.000   3.11    0.00     0.00    0.00   1    8.00     0    0    0   240   0.0  1   1    7    0   0.000    0.000    0.000  1
 63   1    1  1 0 2    62  16   100  256  256     0.00000   6.34994 2.40869e-004  1325  2303  -5.93   4.01  -0.00   -8.90   14.54   25.86  1.200  0.000 0 2 0 2  1.000  1.000   3.11    0.00     0.00    0.00   1    8.00     0    0    0   240   0.0  1   1    7    0   0.000    0.000    0.000  1
 64   1    1  1 0 2    63  16   100  256  256     0.00000   6.34994 2.40869e-004  1527  2654  -5.93   4.01  -0.00   -8.99   14.42   24.67  1.200  0.000 0 2 0 2  1.000  1.000   3.11    0.00     0.00    0.00   1    8.00     0    0    0   240   0.0  1   1    7    0   0.000    0.000    0.000  1
 65   1    1  1 0 2    64  16   100  256  256     0.00000   6.34994 2.40869e-004  2150  3737  -5.93   4.01  -0.00   -9.07   14.30   23.48  1.200  0.000 0 2 0 2  1.000  1.000   3.11    0.00     0.00    0.00   1    8.00     0    0    0   240   0.0  1   1    7    0   0.000    0.000    0.000  1
 66   1    1  1 0 2    65  16   100  256  256     0.00000   6.34994 2.40869e-004  1807  3140  -5.93   4.01  -0.00   -9.15   14.17   22.29  1.200  0.000 0 2 0 2  1.000  1.000   3.11    0.00     0.00    0.00   1    8.00     0    0    0   240   0.0  1   1    7    0   0.000    0.000    0.000  1
 67   1    1  1 0 2    66  16   100  256  256     0.00000   6.34994 2.40869e-004  1603  2787  -5.93   4.01  -0.00   -9.24   14.05   21.10  1.200  0.000 0 2 0 2  1.000  1.000   3.11    0.00     0.00    0.00   1    8.00     0    0    0   240   0.0  1   1    7    0   0.000    0.000    0.000  1
 68   1    1  1 0 2    67  16   100  256  256     0.00000   6.34994 2.40869e-004  1558  2709  -5.93   4.01  -0.00   -9.32   13.92   19.91  1.200  0.000 0 2 0 2  1.000  1.000   3.11    0.00     0.00    0.00   1    8.00     0    0    0   240   0.0  1   1    7    0   0.000    0.000    0.000  1
 69   1    1  1 0 2    68  16   100  256  256     0.00000   6.34994 2.40869e-004  1459  2536  -5.93   4.01  -0.00   -9.41   13.80   18.72  1.200  0.000 0 2 0 2  1.000  1.000   3.11    0.00     0.00    0.00   1    8.00     0    0    0   240   0.0  1   1    7    0   0.000    0.000    0.000  1
 70   1    1  1 0 2    69  16   100  256  256     0.00000   6.34994 2.40869e-004  1339  2327  -5.93   4.01  -0.00   -9.49   13.68   17.53  1.200  0.000 0 2 0 2  1.000  1.000   3.11    0.00     0.00    0.00   1    8.00     0    0    0   240   0.0  1   1    7    0   0.000    0.000    0.000  1
 71   1    1  1 0 2    70  16   100  256  256     0.00000   6.34994 2.40869e-004  1232  2142  -5.93   4.01  -0.00   -9.57   13.55   16.34  1.200  0.000 0 2 0 2  1.000  1.000   3.11    0.00     0.00    0.00   1    8.00     0    0    0   240   0.0  1   1    7    0   0.000    0.000    0.000  1
 72   1    1  1 0 2    71  16   100  256  256     0.00000   6.34994 2.40869e-004  1152  2003  -5.93   4.01  -0.00   -9.66   13.43   15.15  1.200  0.000 0 2 0 2  1.000  1.000   3.11    0.00     0.00    0.00   1    8.00     0    0    0   240   0.0  1   1    7    0   0.000    0.000    0.000  1
 73   1    1  1 0 2    72  16   100  256  256     0.00000   6.34994 2.40869e-004  1042  1811  -5.93   4.01  -0.00   -9.74   13.31   13.96  1.200  0.000 0 2 0 2  1.000  1.000   3.11    0.00     0.00    0.00   1    8.00     0    0    0   240   0.0  1   1    7    0   0.000    0.000    0.000  1
 74   1    1  1 0 2    73  16   100  256  256     0.00000   6.34994 2.40869e-004  1032  1795  -5.93   4.01  -0.00   -9.82   13.18   12.77  1.200  0.000 0 2 0 2  1.000  1.000   3.11    0.00     0.00    0.00   1    8.00     0    0    0   240   0.0  1   1    7    0   0.000    0.000    0.000  1
 75   1    1  1 0 2    74  16   100  256  256     0.00000   6.34994 2.40869e-004  1004  1745  -5.93   4.01  -0.00   -9.91   13.06   11.58  1.200  0.000 0 2 0 2  1.000  1.000   3.11    0.00     0.00    0.00   1    8.00     0    0    0   240   0.0  1   1    7    0   0.000    0.000    0.000  1
 76   1    1  1 0 2    75  16   100  256  256     0.00000   6.34994 2.40869e-004  1075  1868  -5.93   4.01  -0.00   -9.99   12.94   10.39  1.200  0.000 0 2 0 2  1.000  1.000   3.11    0.00     0.00    0.00   1    8.00     0    0    0   240   0.0  1   1    7    0   0.000    0.000    0.000  1
 77   1    1  1 0 2    76  16   100  256  256     0.00000   6.34994 2.40869e-004  1119  1946  -5.93   4.01  -0.00  -10.08   12.81    9.20  1.200  0.000 0 2 0 2  1.000  1.000   3.11    0.00     0.00    0.00   1    8.00     0    0    0   240   0.0  1   1    7    0   0.000    0.000    0.000  1
 78   1    1  1 0 2    77  16   100  256  256     0.00000   6.34994 2.40869e-004  1082  1882  -5.93   4.01  -0.00  -10.16   12.69    8.00  1.200  0.000 0 2 0 2  1.000  1.000   3.11    0.00     0.00    0.00   1    8.00     0    0    0   240   0.0  1   1    7    0   0.000    0.000    0.000  1
 79   1    1  1 0 2    78  16   100  256  256     0.00000   6.34994 2.40869e-004  1038  1804  -5.93   4.01  -0.00  -10.24   12.56    6.81  1.200  0.000 0 2 0 2  1.000  1.000   3.11    0.00     0.00    0.00   1    8.00     0    0    0   240   0.0  1   1    7    0   0.000    0.000    0.000  1
 80   1    1  1 0 2    79  16   100  256  256     0.00000   6.34994 2.40869e-004  1043  1812  -5.93   4.01  -0.00  -10.33   12.44    5.62  1.200  0.000 0 2 0 2  1.000  1.000   3.11    0.00     0.00    0.00   1    8.00     0    0    0   240   0.0  1   1    7    0   0.000    0.000    0.000  1
 81   1    1  1 0 2    80  16   100  256  256     0.00000   6.34994 2.40869e-004  1039  1807  -5.93   4.01  -0.00  -10.41   12.32    4.43  1.200  0.000 0 2 0 2  1.000  1.000   3.11    0.00     0.00    0.00   1    8.00     0    0    0   240   0.0  1   1    7    0   0.000    0.000    0.000  1
 82   1    1  1 0 2    81  16   100  256  256     0.00000   6.34994 2.40869e-004  1106  1923  -5.93   4.01  -0.00  -10.50   12.19    3.24  1.200  0.000 0 2 0 2  1.000  1.000   3.11    0.00     0.00    0.00   1    8.00     0    0    0   240   0.0  1   1    7    0   0.000    0.000    0.000  1
 83   1    1  1 0 2    82  16   100  256  256     0.00000   6.34994 2.40869e-004  1051  1828  -5.93   4.01  -0.00  -10.58   12.07    2.05  1.200  0.000 0 2 0 2  1.000  1.000   3.11    0.00     0.00    0.00   1    8.00     0    0    0   240   0.0  1   1    7    0   0.000    0.000    0.000  1
 84   1    1  1 0 2    83  16   100  256  256     0.00000   6.34994 2.40869e-004  1139  1979  -5.93   4.01  -0.00  -10.66   11.95    0.86  1.200  0.000 0 2 0 2  1.000  1.000   3.11    0.00     0.00    0.00   1    8.00     0    0    0   240   0.0  1   1    7    0   0.000    0.000    0.000  1
