# === DATA DESCRIPTION FILE ======================================================
#
# CAUTION - Investigational device.
# Limited by Federal Law to investigational use.
#
#
# CLINICAL TRYOUT             Research image export tool     V4.2
#
# === GENERAL INFORMATION ========================================================
#
.    Protocol name                      :   WIP MPrageADNIsag SENSE
.    Series Type                        :   Image   MRSERIES
.    Acquisition nr                     :   3
.    Reconstruction nr                  :   1
.    Scan Duration [sec]                :   356
.    Max. number of cardiac phases      :   1
.    Max. number of echoes              :   1
.    Max. number of slices/locations    :   170
.    Max. number of dynamics            :   1
.    Max. number of mixes               :   1
.    Patient position                   :   Head First Supine
.    Preparation direction              :   Anterior-Posterior
.    Technique                          :   T1TFE
.    Scan resolution  (x, y)            :   256  256
.    Scan mode                          :   3D
.    Repetition time [ms]               :   6.748  
.    FOV (ap,fh,rl) [mm]                :   240.000  256.000  204.000
.    Water Fat shift [pixels]           :   1.802
.    Angulation midslice(ap,fh,rl)[degr]:   -4.303  0.997  -0.226
.    Off Centre midslice(ap,fh,rl) [mm] :   -21.191  5.309  -0.927
.    Flow compensation <0=no 1=yes> ?   :   0
.    Presaturation     <0=no 1=yes> ?   :   0
.    Phase encoding velocity [cm/sec]   :   0.000000  0.000000  0.000000
.    MTC               <0=no 1=yes> ?   :   0
.    SPIR              <0=no 1=yes> ?   :   0
.    EPI factor        <0,1=no EPI>     :   1
.    Dynamic scan      <0=no 1=yes> ?   :   0
.    Diffusion         <0=no 1=yes> ?   :   0
.    Diffusion echo time [ms]           :   0.0000
.    Max. number of diffusion values    :   1
.    Max. number of gradient orients    :   1
.    Number of label types   <0=no ASL> :   0
#
# === PIXEL VALUES =============================================================
#  PV = pixel value in REC file, FP = floating point value, DV = displayed value on console
#  RS = rescale slope,           RI = rescale intercept,    SS = scale slope
#  DV = PV * RS + RI             FP = DV / (RS * SS)
#
# === IMAGE INFORMATION DEFINITION =============================================
#  The rest of this file contains ONE line per image, this line contains the following information:
#
#  slice number                             (integer)
#  echo number                              (integer)
#  dynamic scan number                      (integer)
#  cardiac phase number                     (integer)
#  image_type_mr                            (integer)
#  scanning sequence                        (integer)
#  index in REC file (in images)            (integer)
#  image pixel size (in bits)               (integer)
#  scan percentage                          (integer)
#  recon resolution (x y)                   (2*integer)
#  rescale intercept                        (float)
#  rescale slope                            (float)
#  scale slope                              (float)
#  window center                            (integer)
#  window width                             (integer)
#  image angulation (ap,fh,rl in degrees )  (3*float)
#  image offcentre (ap,fh,rl in mm )        (3*float)
#  slice thickness (in mm )                 (float)
#  slice gap (in mm )                       (float)
#  image_display_orientation                (integer)
#  slice orientation ( TRA/SAG/COR )        (integer)
#  fmri_status_indication                   (integer)
#  image_type_ed_es  (end diast/end syst)   (integer)
#  pixel spacing (x,y) (in mm)              (2*float)
#  echo_time                                (float)
#  dyn_scan_begin_time                      (float)
#  trigger_time                             (float)
#  diffusion_b_factor                       (float)
#  number of averages                       (integer)
#  image_flip_angle (in degrees)            (float)
#  cardiac frequency   (bpm)                (integer)
#  minimum RR-interval (in ms)              (integer)
#  maximum RR-interval (in ms)              (integer)
#  TURBO factor  <0=no turbo>               (integer)
#  Inversion delay (in ms)                  (float)
#  diffusion b value number    (imagekey!)  (integer)
#  gradient orientation number (imagekey!)  (integer)
#  contrast type                            (string)
#  diffusion anisotropy type                (string)
#  diffusion (ap, fh, rl)                   (3*float)
#  label type (ASL)            (imagekey!)  (integer)
#
# === IMAGE INFORMATION ==========================================================
#  sl ec  dyn ph ty    idx pix scan% rec size                (re)scale              window        angulation              offcentre        thick   gap   info      spacing     echo     dtime   ttime    diff  avg  flip    freq   RR-int  turbo delay b grad cont anis         diffusion       L.ty

  1   1    1  1 0 2     0  16   100  256  256     0.00000   5.81465 2.06336e-004    30    52  -4.30   1.00  -0.23  -19.40   12.91  100.17  1.200  0.000 0 2 0 2  1.000  1.000   3.12    0.00     0.00    0.00   1    8.00     0    0    0   240   0.0  1   1    7    0   0.000    0.000    0.000  1
  2   1    1  1 0 2     1  16   100  256  256     0.00000   5.81465 2.06336e-004    26    45  -4.30   1.00  -0.23  -19.42   12.82   98.98  1.200  0.000 0 2 0 2  1.000  1.000   3.12    0.00     0.00    0.00   1    8.00     0    0    0   240   0.0  1   1    7    0   0.000    0.000    0.000  1
  3   1    1  1 0 2     2  16   100  256  256     0.00000   5.81465 2.06336e-004    27    47  -4.30   1.00  -0.23  -19.44   12.73   97.78  1.200  0.000 0 2 0 2  1.000  1.000   3.12    0.00     0.00    0.00   1    8.00     0    0    0   240   0.0  1   1    7    0   0.000    0.000    0.000  1
  4   1    1  1 0 2     3  16   100  256  256     0.00000   5.81465 2.06336e-004    31    53  -4.30   1.00  -0.23  -19.46   12.64   96.58  1.200  0.000 0 2 0 2  1.000  1.000   3.12    0.00     0.00    0.00   1    8.00     0    0    0   240   0.0  1   1    7    0   0.000    0.000    0.000  1
  5   1    1  1 0 2     4  16   100  256  256     0.00000   5.81465 2.06336e-004    33    58  -4.30   1.00  -0.23  -19.48   12.55   95.39  1.200  0.000 0 2 0 2  1.000  1.000   3.12    0.00     0.00    0.00   1    8.00     0    0    0   240   0.0  1   1    7    0   0.000    0.000    0.000  1
  6   1    1  1 0 2     5  16   100  256  256     0.00000   5.81465 2.06336e-004    31    55  -4.30   1.00  -0.23  -19.50   12.46   94.19  1.200  0.000 0 2 0 2  1.000  1.000   3.12    0.00     0.00    0.00   1    8.00     0    0    0   240   0.0  1   1    7    0   0.000    0.000    0.000  1
  7   1    1  1 0 2     6  16   100  256  256     0.00000   5.81465 2.06336e-004    30    53  -4.30   1.00  -0.23  -19.52   12.37   92.99  1.200  0.000 0 2 0 2  1.000  1.000   3.12    0.00     0.00    0.00   1    8.00     0    0    0   240   0.0  1   1    7    0   0.000    0.000    0.000  1
  8   1    1  1 0 2     7  16   100  256  256     0.00000   5.81465 2.06336e-004    32    55  -4.30   1.00  -0.23  -19.54   12.28   91.80  1.200  0.000 0 2 0 2  1.000  1.000   3.12    0.00     0.00    0.00   1    8.00     0    0    0   240   0.0  1   1    7    0   0.000    0.000    0.000  1
  9   1    1  1 0 2     8  16   100  256  256     0.00000   5.81465 2.06336e-004    35    61  -4.30   1.00  -0.23  -19.57   12.19   90.60  1.200  0.000 0 2 0 2  1.000  1.000   3.12    0.00     0.00    0.00   1    8.00     0    0    0   240   0.0  1   1    7    0   0.000    0.000    0.000  1
 10   1    1  1 0 2     9  16   100  256  256     0.00000   5.81465 2.06336e-004    35    61  -4.30   1.00  -0.23  -19.59   12.10   89.40  1.200  0.000 0 2 0 2  1.000  1.000   3.12    0.00     0.00    0.00   1    8.00     0    0    0   240   0.0  1   1    7    0   0.000    0.000    0.000  1
 11   1    1  1 0 2    10  16   100  256  256     0.00000   5.81465 2.06336e-004    39    67  -4.30   1.00  -0.23  -19.61   12.01   88.21  1.200  0.000 0 2 0 2  1.000  1.000   3.12    0.00     0.00    0.00   1    8.00     0    0    0   240   0.0  1   1    7    0   0.000    0.000    0.000  1
 12   1    1  1 0 2    11  16   100  256  256     0.00000   5.81465 2.06336e-004    43    75  -4.30   1.00  -0.23  -19.63   11.92   87.01  1.200  0.000 0 2 0 2  1.000  1.000   3.12    0.00     0.00    0.00   1    8.00     0    0    0   240   0.0  1   1    7    0   0.000    0.000    0.000  1
 13   1    1  1 0 2    12  16   100  256  256     0.00000   5.81465 2.06336e-004    41    71  -4.30   1.00  -0.23  -19.65   11.83   85.81  1.200  0.000 0 2 0 2  1.000  1.000   3.12    0.00     0.00    0.00   1    8.00     0    0    0   240   0.0  1   1    7    0   0.000    0.000    0.000  1
 14   1    1  1 0 2    13  16   100  256  256     0.00000   5.81465 2.06336e-004    42    72  -4.30   1.00  -0.23  -19.67   11.74   84.62  1.200  0.000 0 2 0 2  1.000  1.000   3.12    0.00     0.00    0.00   1    8.00     0    0    0   240   0.0  1   1    7    0   0.000    0.000    0.000  1
 15   1    1  1 0 2    14  16   100  256  256     0.00000   5.81465 2.06336e-004    41    72  -4.30   1.00  -0.23  -19.69   11.65   83.42  1.200  0.000 0 2 0 2  1.000  1.000   3.12    0.00     0.00    0.00   1    8.00     0    0    0   240   0.0  1   1    7    0   0.000    0.000    0.000  1
 16   1    1  1 0 2    15  16   100  256  256     0.00000   5.81465 2.06336e-004    47    82  -4.30   1.00  -0.23  -19.71   11.56   82.23  1.200  0.000 0 2 0 2  1.000  1.000   3.12    0.00     0.00    0.00   1    8.00     0    0    0   240   0.0  1   1    7    0   0.000    0.000    0.000  1
 17   1    1  1 0 2    16  16   100  256  256     0.00000   5.81465 2.06336e-004   158   274  -4.30   1.00  -0.23  -19.74   11.47   81.03  1.200  0.000 0 2 0 2  1.000  1.000   3.12    0.00     0.00    0.00   1    8.00     0    0    0   240   0.0  1   1    7    0   0.000    0.000    0.000  1
 18   1    1  1 0 2    17  16   100  256  256     0.00000   5.81465 2.06336e-004   296   514  -4.30   1.00  -0.23  -19.76   11.38   79.83  1.200  0.000 0 2 0 2  1.000  1.000   3.12    0.00     0.00    0.00   1    8.00     0    0    0   240   0.0  1   1    7    0   0.000    0.000    0.000  1
 19   1    1  1 0 2    18  16   100  256  256     0.00000   5.81465 2.06336e-004   396   689  -4.30   1.00  -0.23  -19.78   11.29   78.64  1.200  0.000 0 2 0 2  1.000  1.000   3.12    0.00     0.00    0.00   1    8.00     0    0    0   240   0.0  1   1    7    0   0.000    0.000    0.000  1
 20   1    1  1 0 2    19  16   100  256  256     0.00000   5.81465 2.06336e-004   427   743  -4.30   1.00  -0.23  -19.80   11.20   77.44  1.200  0.000 0 2 0 2  1.000  1.000   3.12    0.00     0.00    0.00   1    8.00     0    0    0   240   0.0  1   1    7    0   0.000    0.000    0.000  1
 21   1    1  1 0 2    20  16   100  256  256     0.00000   5.81465 2.06336e-004   529   919  -4.30   1.00  -0.23  -19.82   11.11   76.24  1.200  0.000 0 2 0 2  1.000  1.000   3.12    0.00     0.00    0.00   1    8.00     0    0    0   240   0.0  1   1    7    0   0.000    0.000    0.000  1
 22   1    1  1 0 2    21  16   100  256  256     0.00000   5.81465 2.06336e-004   707  1228  -4.30   1.00  -0.23  -19.84   11.02   75.05  1.200  0.000 0 2 0 2  1.000  1.000   3.12    0.00     0.00    0.00   1    8.00     0    0    0   240   0.0  1   1    7    0   0.000    0.000    0.000  1
 23   1    1  1 0 2    22  16   100  256  256     0.00000   5.81465 2.06336e-004   816  1419  -4.30   1.00  -0.23  -19.86   10.93   73.85  1.200  0.000 0 2 0 2  1.000  1.000   3.12    0.00     0.00    0.00   1    8.00     0    0    0   240   0.0  1   1    7    0   0.000    0.000    0.000  1
 24   1    1  1 0 2    23  16   100  256  256     0.00000   5.81465 2.06336e-004   991  1722  -4.30   1.00  -0.23  -19.88   10.84   72.65  1.200  0.000 0 2 0 2  1.000  1.000   3.12    0.00     0.00    0.00   1    8.00     0    0    0   240   0.0  1   1    7    0   0.000    0.000    0.000  1
 25   1    1  1 0 2    24  16   100  256  256     0.00000   5.81465 2.06336e-004  1005  1748  -4.30   1.00  -0.23  -19.91   10.75   71.46  1.200  0.000 0 2 0 2  1.000  1.000   3.12    0.00     0.00    0.00   1    8.00     0    0    0   240   0.0  1   1    7    0   0.000    0.000    0.000  1
 26   1    1  1 0 2    25  16   100  256  256     0.00000   5.81465 2.06336e-004  1003  1744  -4.30   1.00  -0.23  -19.93   10.66   70.26  1.200  0.000 0 2 0 2  1.000  1.000   3.12    0.00     0.00    0.00   1    8.00     0    0    0   240   0.0  1   1    7    0   0.000    0.000    0.000  1
 27   1    1  1 0 2    26  16   100  256  256     0.00000   5.81465 2.06336e-004  1012  1760  -4.30   1.00  -0.23  -19.95   10.57   69.06  1.200  0.000 0 2 0 2  1.000  1.000   3.12    0.00     0.00    0.00   1    8.00     0    0    0   240   0.0  1   1    7    0   0.000    0.000    0.000  1
 28   1    1  1 0 2    27  16   100  256  256     0.00000   5.81465 2.06336e-004  1058  1838  -4.30   1.00  -0.23  -19.97   10.48   67.87  1.200  0.000 0 2 0 2  1.000  1.000   3.12    0.00     0.00    0.00   1    8.00     0    0    0   240   0.0  1   1    7    0   0.000    0.000    0.000  1
 29   1    1  1 0 2    28  16   100  256  256     0.00000   5.81465 2.06336e-004  1071  1862  -4.30   1.00  -0.23  -19.99   10.39   66.67  1.200  0.000 0 2 0 2  1.000  1.000   3.12    0.00     0.00    0.00   1    8.00     0    0    0   240   0.0  1   1    7    0   0.000    0.000    0.000  1
 30   1    1  1 0 2    29  16   100  256  256     0.00000   5.81465 2.06336e-004  1061  1845  -4.30   1.00  -0.23  -20.01   10.30   65.48  1.200  0.000 0 2 0 2  1.000  1.000   3.12    0.00     0.00    0.00   1    8.00     0    0    0   240   0.0  1   1    7    0   0.000    0.000    0.000  1
 31   1    1  1 0 2    30  16   100  256  256     0.00000   5.81465 2.06336e-004  1087  1890  -4.30   1.00  -0.23  -20.03   10.21   64.28  1.200  0.000 0 2 0 2  1.000  1.000   3.12    0.00     0.00    0.00   1    8.00     0    0    0   240   0.0  1   1    7    0   0.000    0.000    0.000  1
 32   1    1  1 0 2    31  16   100  256  256     0.00000   5.81465 2.06336e-004  1089  1893  -4.30   1.00  -0.23  -20.05   10.12   63.08  1.200  0.000 0 2 0 2  1.000  1.000   3.12    0.00     0.00    0.00   1    8.00     0    0    0   240   0.0  1   1    7    0   0.000    0.000    0.000  1
 33   1    1  1 0 2    32  16   100  256  256     0.00000   5.81465 2.06336e-004  1105  1921  -4.30   1.00  -0.23  -20.08   10.03   61.89  1.200  0.000 0 2 0 2  1.000  1.000   3.12    0.00     0.00    0.00   1    8.00     0    0    0   240   0.0  1   1    7    0   0.000    0.000    0.000  1
 34   1    1  1 0 2    33  16   100  256  256     0.00000   5.81465 2.06336e-004  1117  1941  -4.30   1.00  -0.23  -20.10    9.94   60.69  1.200  0.000 0 2 0 2  1.000  1.000   3.12    0.00     0.00    0.00   1    8.00     0    0    0   240   0.0  1   1    7    0   0.000    0.000    0.000  1
 35   1    1  1 0 2    34  16   100  256  256     0.00000   5.81465 2.06336e-004  1121  1949  -4.30   1.00  -0.23  -20.12    9.85   59.49  1.200  0.000 0 2 0 2  1.000  1.000   3.12    0.00     0.00    0.00   1    8.00     0    0    0   240   0.0  1   1    7    0   0.000    0.000    0.000  1
 36   1    1  1 0 2    35  16   100  256  256     0.00000   5.81465 2.06336e-004  1124  1955  -4.30   1.00  -0.23  -20.14    9.76   58.30  1.200  0.000 0 2 0 2  1.000  1.000   3.12    0.00     0.00    0.00   1    8.00     0    0    0   240   0.0  1   1    7    0   0.000    0.000    0.000  1
 37   1    1  1 0 2    36  16   100  256  256     0.00000   5.81465 2.06336e-004  1130  1965  -4.30   1.00  -0.23  -20.16    9.67   57.10  1.200  0.000 0 2 0 2  1.000  1.000   3.12    0.00     0.00    0.00   1    8.00     0    0    0   240   0.0  1   1    7    0   0.000    0.000    0.000  1
 38   1    1  1 0 2    37  16   100  256  256     0.00000   5.81465 2.06336e-004  1115  1938  -4.30   1.00  -0.23  -20.18    9.58   55.90  1.200  0.000 0 2 0 2  1.000  1.000   3.12    0.00     0.00    0.00   1    8.00     0    0    0   240   0.0  1   1    7    0   0.000    0.000    0.000  1
 39   1    1  1 0 2    38  16   100  256  256     0.00000   5.81465 2.06336e-004  1096  1906  -4.30   1.00  -0.23  -20.20    9.49   54.71  1.200  0.000 0 2 0 2  1.000  1.000   3.12    0.00     0.00    0.00   1    8.00     0    0    0   240   0.0  1   1    7    0   0.000    0.000    0.000  1
 40   1    1  1 0 2    39  16   100  256  256     0.00000   5.81465 2.06336e-004  1076  1871  -4.30   1.00  -0.23  -20.22    9.40   53.51  1.200  0.000 0 2 0 2  1.000  1.000   3.12    0.00     0.00    0.00   1    8.00     0    0    0   240   0.0  1   1    7    0   0.000    0.000    0.000  1
 41   1    1  1 0 2    40  16   100  256  256     0.00000   5.81465 2.06336e-004  1106  1922  -4.30   1.00  -0.23  -20.25    9.31   52.31  1.200  0.000 0 2 0 2  1.000  1.000   3.12    0.00     0.00    0.00   1    8.00     0    0    0   240   0.0  1   1    7    0   0.000    0.000    0.000  1
 42   1    1  1 0 2    41  16   100  256  256     0.00000   5.81465 2.06336e-004  1091  1896  -4.30   1.00  -0.23  -20.27    9.22   51.12  1.200  0.000 0 2 0 2  1.000  1.000   3.12    0.00     0.00    0.00   1    8.00     0    0    0   240   0.0  1   1    7    0   0.000    0.000    0.000  1
 43   1    1  1 0 2    42  16   100  256  256     0.00000   5.81465 2.06336e-004  1077  1873  -4.30   1.00  -0.23  -20.29    9.13   49.92  1.200  0.000 0 2 0 2  1.000  1.000   3.12    0.00     0.00    0.00   1    8.00     0    0    0   240   0.0  1   1    7    0   0.000    0.000    0.000  1
 44   1    1  1 0 2    43  16   100  256  256     0.00000   5.81465 2.06336e-004  1089  1892  -4.30   1.00  -0.23  -20.31    9.04   48.73  1.200  0.000 0 2 0 2  1.000  1.000   3.12    0.00     0.00    0.00   1    8.00     0    0    0   240   0.0  1   1    7    0   0.000    0.000    0.000  1
 45   1    1  1 0 2    44  16   100  256  256     0.00000   5.81465 2.06336e-004  1072  1864  -4.30   1.00  -0.23  -20.33    8.95   47.53  1.200  0.000 0 2 0 2  1.000  1.000   3.12    0.00     0.00    0.00   1    8.00     0    0    0   240   0.0  1   1    7    0   0.000    0.000    0.000  1
 46   1    1  1 0 2    45  16   100  256  256     0.00000   5.81465 2.06336e-004  1075  1869  -4.30   1.00  -0.23  -20.35    8.86   46.33  1.200  0.000 0 2 0 2  1.000  1.000   3.12    0.00     0.00    0.00   1    8.00     0    0    0   240   0.0  1   1    7    0   0.000    0.000    0.000  1
 47   1    1  1 0 2    46  16   100  256  256     0.00000   5.81465 2.06336e-004  1094  1901  -4.30   1.00  -0.23  -20.37    8.77   45.14  1.200  0.000 0 2 0 2  1.000  1.000   3.12    0.00     0.00    0.00   1    8.00     0    0    0   240   0.0  1   1    7    0   0.000    0.000    0.000  1
 48   1    1  1 0 2    47  16   100  256  256     0.00000   5.81465 2.06336e-004  1107  1925  -4.30   1.00  -0.23  -20.39    8.68   43.94  1.200  0.000 0 2 0 2  1.000  1.000   3.12    0.00     0.00    0.00   1    8.00     0    0    0   240   0.0  1   1    7    0   0.000    0.000    0.000  1
 49   1    1  1 0 2    48  16   100  256  256     0.00000   5.81465 2.06336e-004  1097  1907  -4.30   1.00  -0.23  -20.42    8.59   42.74  1.200  0.000 0 2 0 2  1.000  1.000   3.12    0.00     0.00    0.00   1    8.00     0    0    0   240   0.0  1   1    7    0   0.000    0.000    0.000  1
 50   1    1  1 0 2    49  16   100  256  256     0.00000   5.81465 2.06336e-004  1110  1930  -4.30   1.00  -0.23  -20.44    8.50   41.55  1.200  0.000 0 2 0 2  1.000  1.000   3.12    0.00     0.00    0.00   1    8.00     0    0    0   240   0.0  1   1    7    0   0.000    0.000    0.000  1
 51   1    1  1 0 2    50  16   100  256  256     0.00000   5.81465 2.06336e-004  1098  1909  -4.30   1.00  -0.23  -20.46    8.41   40.35  1.200  0.000 0 2 0 2  1.000  1.000   3.12    0.00     0.00    0.00   1    8.00     0    0    0   240   0.0  1   1    7    0   0.000    0.000    0.000  1
 52   1    1  1 0 2    51  16   100  256  256     0.00000   5.81465 2.06336e-004  1084  1884  -4.30   1.00  -0.23  -20.48    8.32   39.15  1.200  0.000 0 2 0 2  1.000  1.000   3.12    0.00     0.00    0.00   1    8.00     0    0    0   240   0.0  1   1    7    0   0.000    0.000    0.000  1
 53   1    1  1 0 2    52  16   100  256  256     0.00000   5.81465 2.06336e-004  1096  1906  -4.30   1.00  -0.23  -20.50    8.23   37.96  1.200  0.000 0 2 0 2  1.000  1.000   3.12    0.00     0.00    0.00   1    8.00     0    0    0   240   0.0  1   1    7    0   0.000    0.000    0.000  1
 54   1    1  1 0 2    53  16   100  256  256     0.00000   5.81465 2.06336e-004  1104  1919  -4.30   1.00  -0.23  -20.52    8.14   36.76  1.200  0.000 0 2 0 2  1.000  1.000   3.12    0.00     0.00    0.00   1    8.00     0    0    0   240   0.0  1   1    7    0   0.000    0.000    0.000  1
 55   1    1  1 0 2    54  16   100  256  256     0.00000   5.81465 2.06336e-004  1117  1942  -4.30   1.00  -0.23  -20.54    8.05   35.56  1.200  0.000 0 2 0 2  1.000  1.000   3.12    0.00     0.00    0.00   1    8.00     0    0    0   240   0.0  1   1    7    0   0.000    0.000    0.000  1
 56   1    1  1 0 2    55  16   100  256  256     0.00000   5.81465 2.06336e-004  1132  1968  -4.30   1.00  -0.23  -20.56    7.96   34.37  1.200  0.000 0 2 0 2  1.000  1.000   3.12    0.00     0.00    0.00   1    8.00     0    0    0   240   0.0  1   1    7    0   0.000    0.000    0.000  1
 57   1    1  1 0 2    56  16   100  256  256     0.00000   5.81465 2.06336e-004  1175  2043  -4.30   1.00  -0.23  -20.59    7.87   33.17  1.200  0.000 0 2 0 2  1.000  1.000   3.12    0.00     0.00    0.00   1    8.00     0    0    0   240   0.0  1   1    7    0   0.000    0.000    0.000  1
 58   1    1  1 0 2    57  16   100  256  256     0.00000   5.81465 2.06336e-004  1193  2074  -4.30   1.00  -0.23  -20.61    7.78   31.98  1.200  0.000 0 2 0 2  1.000  1.000   3.12    0.00     0.00    0.00   1    8.00     0    0    0   240   0.0  1   1    7    0   0.000    0.000    0.000  1
 59   1    1  1 0 2    58  16   100  256  256     0.00000   5.81465 2.06336e-004  1160  2017  -4.30   1.00  -0.23  -20.63    7.69   30.78  1.200  0.000 0 2 0 2  1.000  1.000   3.12    0.00     0.00    0.00   1    8.00     0    0    0   240   0.0  1   1    7    0   0.000    0.000    0.000  1
 60   1    1  1 0 2    59  16   100  256  256     0.00000   5.81465 2.06336e-004  1142  1985  -4.30   1.00  -0.23  -20.65    7.60   29.58  1.200  0.000 0 2 0 2  1.000  1.000   3.12    0.00     0.00    0.00   1    8.00     0    0    0   240   0.0  1   1    7    0   0.000    0.000    0.000  1
 61   1    1  1 0 2    60  16   100  256  256     0.00000   5.81465 2.06336e-004  1154  2006  -4.30   1.00  -0.23  -20.67    7.51   28.39  1.200  0.000 0 2 0 2  1.000  1.000   3.12    0.00     0.00    0.00   1    8.00     0    0    0   240   0.0  1   1    7    0   0.000    0.000    0.000  1
 62   1    1  1 0 2    61  16   100  256  256     0.00000   5.81465 2.06336e-004  1164  2024  -4.30   1.00  -0.23  -20.69    7.42   27.19  1.200  0.000 0 2 0 2  1.000  1.000   3.12    0.00     0.00    0.00   1    8.00     0    0    0   240   0.0  1   1    7    0   0.000    0.000    0.000  1
 63   1    1  1 0 2    62  16   100  256  256     0.00000   5.81465 2.06336e-004  1194  2076  -4.30   1.00  -0.23  -20.71    7.33   25.99  1.200  0.000 0 2 0 2  1.000  1.000   3.12    0.00     0.00    0.00   1    8.00     0    0    0   240   0.0  1   1    7    0   0.000    0.000    0.000  1
 64   1    1  1 0 2    63  16   100  256  256     0.00000   5.81465 2.06336e-004  1244  2162  -4.30   1.00  -0.23  -20.73    7.24   24.80  1.200  0.000 0 2 0 2  1.000  1.000   3.12    0.00     0.00    0.00   1    8.00     0    0    0   240   0.0  1   1    7    0   0.000    0.000    0.000  1
 65   1    1  1 0 2    64  16   100  256  256     0.00000   5.81465 2.06336e-004  1289  2242  -4.30   1.00  -0.23  -20.76    7.15   23.60  1.200  0.000 0 2 0 2  1.000  1.000   3.12    0.00     0.00    0.00   1    8.00     0    0    0   240   0.0  1   1    7    0   0.000    0.000    0.000  1
 66   1    1  1 0 2    65  16   100  256  256     0.00000   5.81465 2.06336e-004  1351  2349  -4.30   1.00  -0.23  -20.78    7.06   22.40  1.200  0.000 0 2 0 2  1.000  1.000   3.12    0.00     0.00    0.00   1    8.00     0    0    0   240   0.0  1   1    7    0   0.000    0.000    0.000  1
 67   1    1  1 0 2    66  16   100  256  256     0.00000   5.81465 2.06336e-004  1598  2777  -4.30   1.00  -0.23  -20.80    6.97   21.21  1.200  0.000 0 2 0 2  1.000  1.000   3.12    0.00     0.00    0.00   1    8.00     0    0    0   240   0.0  1   1    7    0   0.000    0.000    0.000  1
 68   1    1  1 0 2    67  16   100  256  256     0.00000   5.81465 2.06336e-004  1454  2528  -4.30   1.00  -0.23  -20.82    6.88   20.01  1.200  0.000 0 2 0 2  1.000  1.000   3.12    0.00     0.00    0.00   1    8.00     0    0    0   240   0.0  1   1    7    0   0.000    0.000    0.000  1
 69   1    1  1 0 2    68  16   100  256  256     0.00000   5.81465 2.06336e-004  1307  2272  -4.30   1.00  -0.23  -20.84    6.79   18.81  1.200  0.000 0 2 0 2  1.000  1.000   3.12    0.00     0.00    0.00   1    8.00     0    0    0   240   0.0  1   1    7    0   0.000    0.000    0.000  1
 70   1    1  1 0 2    69  16   100  256  256     0.00000   5.81465 2.06336e-004  1292  2245  -4.30   1.00  -0.23  -20.86    6.70   17.62  1.200  0.000 0 2 0 2  1.000  1.000   3.12    0.00     0.00    0.00   1    8.00     0    0    0   240   0.0  1   1    7    0   0.000    0.000    0.000  1
 71   1    1  1 0 2    70  16   100  256  256     0.00000   5.81465 2.06336e-004  1284  2233  -4.30   1.00  -0.23  -20.88    6.61   16.42  1.200  0.000 0 2 0 2  1.000  1.000   3.12    0.00     0.00    0.00   1    8.00     0    0    0   240   0.0  1   1    7    0   0.000    0.000    0.000  1
 72   1    1  1 0 2    71  16   100  256  256     0.00000   5.81465 2.06336e-004  1253  2177  -4.30   1.00  -0.23  -20.90    6.52   15.23  1.200  0.000 0 2 0 2  1.000  1.000   3.12    0.00     0.00    0.00   1    8.00     0    0    0   240   0.0  1   1    7    0   0.000    0.000    0.000  1
 73   1    1  1 0 2    72  16   100  256  256     0.00000   5.81465 2.06336e-004  1273  2213  -4.30   1.00  -0.23  -20.93    6.43   14.03  1.200  0.000 0 2 0 2  1.000  1.000   3.12    0.00     0.00    0.00   1    8.00     0    0    0   240   0.0  1   1    7    0   0.000    0.000    0.000  1
 74   1    1  1 0 2    73  16   100  256  256     0.00000   5.81465 2.06336e-004  1322  2299  -4.30   1.00  -0.23  -20.95    6.34   12.83  1.200  0.000 0 2 0 2  1.000  1.000   3.12    0.00     0.00    0.00   1    8.00     0    0    0   240   0.0  1   1    7    0   0.000    0.000    0.000  1
 75   1    1  1 0 2    74  16   100  256  256     0.00000   5.81465 2.06336e-004  1181  2052  -4.30   1.00  -0.23  -20.97    6.25   11.64  1.200  0.000 0 2 0 2  1.000  1.000   3.12    0.00     0.00    0.00   1    8.00     0    0    0   240   0.0  1   1    7    0   0.000    0.000    0.000  1
 76   1    1  1 0 2    75  16   100  256  256     0.00000   5.81465 2.06336e-004  1040  1808  -4.30   1.00  -0.23  -20.99    6.16   10.44  1.200  0.000 0 2 0 2  1.000  1.000   3.12    0.00     0.00    0.00   1    8.00     0    0    0   240   0.0  1   1    7    0   0.000    0.000    0.000  1
 77   1    1  1 0 2    76  16   100  256  256     0.00000   5.81465 2.06336e-004  1017  1768  -4.30   1.00  -0.23  -21.01    6.07    9.24  1.200  0.000 0 2 0 2  1.000  1.000   3.12    0.00     0.00    0.00   1    8.00     0    0    0   240   0.0  1   1    7    0   0.000    0.000    0.000  1
 78   1    1  1 0 2    77  16   100  256  256     0.00000   5.81465 2.06336e-004  1012  1759  -4.30   1.00  -0.23  -21.03    5.98    8.05  1.200  0.000 0 2 0 2  1.000  1.000   3.12    0.00     0.00    0.00   1    8.00     0    0    0   240   0.0  1   1    7    0   0.000    0.000    0.000  1
 79   1    1  1 0 2    78  16   100  256  256     0.00000   5.81465 2.06336e-004  1025  1782  -4.30   1.00  -0.23  -21.05    5.89    6.85  1.200  0.000 0 2 0 2  1.000  1.000   3.12    0.00     0.00    0.00   1    8.00     0    0    0   240   0.0  1   1    7    0   0.000    0.000    0.000  1
 80   1    1  1 0 2    79  16   100  256  256     0.00000   5.81465 2.06336e-004  1037  1803  -4.30   1.00  -0.23  -21.07    5.80    5.65  1.200  0.000 0 2 0 2  1.000  1.000   3.12    0.00     0.00    0.00   1    8.00     0    0    0   240   0.0  1   1    7    0   0.000    0.000    0.000  1
 81   1    1  1 0 2    80  16   100  256  256     0.00000   5.81465 2.06336e-004  1029  1789  -4.30   1.00  -0.23  -21.10    5.71    4.46  1.200  0.000 0 2 0 2  1.000  1.000   3.12    0.00     0.00    0.00   1    8.00     0    0    0   240   0.0  1   1    7    0   0.000    0.000    0.000  1
 82   1    1  1 0 2    81  16   100  256  256     0.00000   5.81465 2.06336e-004  1013  1760  -4.30   1.00  -0.23  -21.12    5.62    3.26  1.200  0.000 0 2 0 2  1.000  1.000   3.12    0.00     0.00    0.00   1    8.00     0    0    0   240   0.0  1   1    7    0   0.000    0.000    0.000  1
 83   1    1  1 0 2    82  16   100  256  256     0.00000   5.81465 2.06336e-004   996  1732  -4.30   1.00  -0.23  -21.14    5.53    2.06  1.200  0.000 0 2 0 2  1.000  1.000   3.12    0.00     0.00    0.00   1    8.00     0    0    0   240   0.0  1   1    7    0   0.000    0.000    0.000  1
 84   1    1  1 0 2    83  16   100  256  256     0.00000   5.81465 2.06336e-004  1001  1740  -4.30   1.00  -0.23  -21.16    5.44    0.87  1.200  0.000 0 2 0 2  1.000  1.000   3.12    0.00     0.00    0.00   1    8.00     0    0    0   240   0.0  1   1    7    0   0.000    0.000    0.000  1
