# === DATA DESCRIPTION FILE ======================================================
#
# CAUTION - Investigational device.
# Limited by Federal Law to investigational use.
#
#
# CLINICAL TRYOUT             Research image export tool     V4.2
#
# === GENERAL INFORMATION ========================================================
#
.    Protocol name                      :   WIP MPrageADNIsag SENSE
.    Series Type                        :   Image   MRSERIES
.    Acquisition nr                     :   3
.    Reconstruction nr                  :   1
.    Scan Duration [sec]                :   356
.    Max. number of cardiac phases      :   1
.    Max. number of echoes              :   1
.    Max. number of slices/locations    :   170
.    Max. number of dynamics            :   1
.    Max. number of mixes               :   1
.    Patient position                   :   Head First Supine
.    Preparation direction              :   Anterior-Posterior
.    Technique                          :   T1TFE
.    Scan resolution  (x, y)            :   256  256
.    Scan mode                          :   3D
.    Repetition time [ms]               :   6.778  
.    FOV (ap,fh,rl) [mm]                :   240.000  256.000  204.000
.    Water Fat shift [pixels]           :   1.802
.    Angulation midslice(ap,fh,rl)[degr]:   -0.323  0.812  1.814
.    Off Centre midslice(ap,fh,rl) [mm] :   -4.955  6.492  -1.529
.    Flow compensation <0=no 1=yes> ?   :   0
.    Presaturation     <0=no 1=yes> ?   :   0
.    Phase encoding velocity [cm/sec]   :   0.000000  0.000000  0.000000
.    MTC               <0=no 1=yes> ?   :   0
.    SPIR              <0=no 1=yes> ?   :   0
.    EPI factor        <0,1=no EPI>     :   1
.    Dynamic scan      <0=no 1=yes> ?   :   0
.    Diffusion         <0=no 1=yes> ?   :   0
.    Diffusion echo time [ms]           :   0.0000
.    Max. number of diffusion values    :   1
.    Max. number of gradient orients    :   1
.    Number of label types   <0=no ASL> :   0
#
# === PIXEL VALUES =============================================================
#  PV = pixel value in REC file, FP = floating point value, DV = displayed value on console
#  RS = rescale slope,           RI = rescale intercept,    SS = scale slope
#  DV = PV * RS + RI             FP = DV / (RS * SS)
#
# === IMAGE INFORMATION DEFINITION =============================================
#  The rest of this file contains ONE line per image, this line contains the following information:
#
#  slice number                             (integer)
#  echo number                              (integer)
#  dynamic scan number                      (integer)
#  cardiac phase number                     (integer)
#  image_type_mr                            (integer)
#  scanning sequence                        (integer)
#  index in REC file (in images)            (integer)
#  image pixel size (in bits)               (integer)
#  scan percentage                          (integer)
#  recon resolution (x y)                   (2*integer)
#  rescale intercept                        (float)
#  rescale slope                            (float)
#  scale slope                              (float)
#  window center                            (integer)
#  window width                             (integer)
#  image angulation (ap,fh,rl in degrees )  (3*float)
#  image offcentre (ap,fh,rl in mm )        (3*float)
#  slice thickness (in mm )                 (float)
#  slice gap (in mm )                       (float)
#  image_display_orientation                (integer)
#  slice orientation ( TRA/SAG/COR )        (integer)
#  fmri_status_indication                   (integer)
#  image_type_ed_es  (end diast/end syst)   (integer)
#  pixel spacing (x,y) (in mm)              (2*float)
#  echo_time                                (float)
#  dyn_scan_begin_time                      (float)
#  trigger_time                             (float)
#  diffusion_b_factor                       (float)
#  number of averages                       (integer)
#  image_flip_angle (in degrees)            (float)
#  cardiac frequency   (bpm)                (integer)
#  minimum RR-interval (in ms)              (integer)
#  maximum RR-interval (in ms)              (integer)
#  TURBO factor  <0=no turbo>               (integer)
#  Inversion delay (in ms)                  (float)
#  diffusion b value number    (imagekey!)  (integer)
#  gradient orientation number (imagekey!)  (integer)
#  contrast type                            (string)
#  diffusion anisotropy type                (string)
#  diffusion (ap, fh, rl)                   (3*float)
#  label type (ASL)            (imagekey!)  (integer)
#
# === IMAGE INFORMATION ==========================================================
#  sl ec  dyn ph ty    idx pix scan% rec size                (re)scale              window        angulation              offcentre        thick   gap   info      spacing     echo     dtime   ttime    diff  avg  flip    freq   RR-int  turbo delay b grad cont anis         diffusion       L.ty

  1   1    1  1 0 2     0  16   100  256  256     0.00000   5.70867 2.72887e-004    29    51  -0.32   0.81   1.81   -3.54    7.11   99.86  1.200  0.000 0 2 0 2  1.000  1.000   3.15    0.00     0.00    0.00   1    8.00     0    0    0   240   0.0  1   1    7    0   0.000    0.000    0.000  1
  2   1    1  1 0 2     1  16   100  256  256     0.00000   5.70867 2.72887e-004    30    52  -0.32   0.81   1.81   -3.55    7.10   98.66  1.200  0.000 0 2 0 2  1.000  1.000   3.15    0.00     0.00    0.00   1    8.00     0    0    0   240   0.0  1   1    7    0   0.000    0.000    0.000  1
  3   1    1  1 0 2     2  16   100  256  256     0.00000   5.70867 2.72887e-004    32    55  -0.32   0.81   1.81   -3.57    7.09   97.46  1.200  0.000 0 2 0 2  1.000  1.000   3.15    0.00     0.00    0.00   1    8.00     0    0    0   240   0.0  1   1    7    0   0.000    0.000    0.000  1
  4   1    1  1 0 2     3  16   100  256  256     0.00000   5.70867 2.72887e-004    32    56  -0.32   0.81   1.81   -3.59    7.09   96.26  1.200  0.000 0 2 0 2  1.000  1.000   3.15    0.00     0.00    0.00   1    8.00     0    0    0   240   0.0  1   1    7    0   0.000    0.000    0.000  1
  5   1    1  1 0 2     4  16   100  256  256     0.00000   5.70867 2.72887e-004    33    57  -0.32   0.81   1.81   -3.60    7.08   95.06  1.200  0.000 0 2 0 2  1.000  1.000   3.15    0.00     0.00    0.00   1    8.00     0    0    0   240   0.0  1   1    7    0   0.000    0.000    0.000  1
  6   1    1  1 0 2     5  16   100  256  256     0.00000   5.70867 2.72887e-004    35    60  -0.32   0.81   1.81   -3.62    7.07   93.86  1.200  0.000 0 2 0 2  1.000  1.000   3.15    0.00     0.00    0.00   1    8.00     0    0    0   240   0.0  1   1    7    0   0.000    0.000    0.000  1
  7   1    1  1 0 2     6  16   100  256  256     0.00000   5.70867 2.72887e-004    34    59  -0.32   0.81   1.81   -3.64    7.07   92.66  1.200  0.000 0 2 0 2  1.000  1.000   3.15    0.00     0.00    0.00   1    8.00     0    0    0   240   0.0  1   1    7    0   0.000    0.000    0.000  1
  8   1    1  1 0 2     7  16   100  256  256     0.00000   5.70867 2.72887e-004    34    60  -0.32   0.81   1.81   -3.65    7.06   91.46  1.200  0.000 0 2 0 2  1.000  1.000   3.15    0.00     0.00    0.00   1    8.00     0    0    0   240   0.0  1   1    7    0   0.000    0.000    0.000  1
  9   1    1  1 0 2     8  16   100  256  256     0.00000   5.70867 2.72887e-004    31    54  -0.32   0.81   1.81   -3.67    7.05   90.26  1.200  0.000 0 2 0 2  1.000  1.000   3.15    0.00     0.00    0.00   1    8.00     0    0    0   240   0.0  1   1    7    0   0.000    0.000    0.000  1
 10   1    1  1 0 2     9  16   100  256  256     0.00000   5.70867 2.72887e-004    35    60  -0.32   0.81   1.81   -3.69    7.04   89.06  1.200  0.000 0 2 0 2  1.000  1.000   3.15    0.00     0.00    0.00   1    8.00     0    0    0   240   0.0  1   1    7    0   0.000    0.000    0.000  1
 11   1    1  1 0 2    10  16   100  256  256     0.00000   5.70867 2.72887e-004    37    64  -0.32   0.81   1.81   -3.70    7.04   87.86  1.200  0.000 0 2 0 2  1.000  1.000   3.15    0.00     0.00    0.00   1    8.00     0    0    0   240   0.0  1   1    7    0   0.000    0.000    0.000  1
 12   1    1  1 0 2    11  16   100  256  256     0.00000   5.70867 2.72887e-004    40    70  -0.32   0.81   1.81   -3.72    7.03   86.66  1.200  0.000 0 2 0 2  1.000  1.000   3.15    0.00     0.00    0.00   1    8.00     0    0    0   240   0.0  1   1    7    0   0.000    0.000    0.000  1
 13   1    1  1 0 2    12  16   100  256  256     0.00000   5.70867 2.72887e-004    34    59  -0.32   0.81   1.81   -3.74    7.02   85.46  1.200  0.000 0 2 0 2  1.000  1.000   3.15    0.00     0.00    0.00   1    8.00     0    0    0   240   0.0  1   1    7    0   0.000    0.000    0.000  1
 14   1    1  1 0 2    13  16   100  256  256     0.00000   5.70867 2.72887e-004    37    64  -0.32   0.81   1.81   -3.76    7.01   84.26  1.200  0.000 0 2 0 2  1.000  1.000   3.15    0.00     0.00    0.00   1    8.00     0    0    0   240   0.0  1   1    7    0   0.000    0.000    0.000  1
 15   1    1  1 0 2    14  16   100  256  256     0.00000   5.70867 2.72887e-004    36    63  -0.32   0.81   1.81   -3.77    7.01   83.06  1.200  0.000 0 2 0 2  1.000  1.000   3.15    0.00     0.00    0.00   1    8.00     0    0    0   240   0.0  1   1    7    0   0.000    0.000    0.000  1
 16   1    1  1 0 2    15  16   100  256  256     0.00000   5.70867 2.72887e-004    36    62  -0.32   0.81   1.81   -3.79    7.00   81.86  1.200  0.000 0 2 0 2  1.000  1.000   3.15    0.00     0.00    0.00   1    8.00     0    0    0   240   0.0  1   1    7    0   0.000    0.000    0.000  1
 17   1    1  1 0 2    16  16   100  256  256     0.00000   5.70867 2.72887e-004    37    65  -0.32   0.81   1.81   -3.81    6.99   80.66  1.200  0.000 0 2 0 2  1.000  1.000   3.15    0.00     0.00    0.00   1    8.00     0    0    0   240   0.0  1   1    7    0   0.000    0.000    0.000  1
 18   1    1  1 0 2    17  16   100  256  256     0.00000   5.70867 2.72887e-004    36    62  -0.32   0.81   1.81   -3.82    6.98   79.46  1.200  0.000 0 2 0 2  1.000  1.000   3.15    0.00     0.00    0.00   1    8.00     0    0    0   240   0.0  1   1    7    0   0.000    0.000    0.000  1
 19   1    1  1 0 2    18  16   100  256  256     0.00000   5.70867 2.72887e-004    39    67  -0.32   0.81   1.81   -3.84    6.98   78.26  1.200  0.000 0 2 0 2  1.000  1.000   3.15    0.00     0.00    0.00   1    8.00     0    0    0   240   0.0  1   1    7    0   0.000    0.000    0.000  1
 20   1    1  1 0 2    19  16   100  256  256     0.00000   5.70867 2.72887e-004   117   203  -0.32   0.81   1.81   -3.86    6.97   77.06  1.200  0.000 0 2 0 2  1.000  1.000   3.15    0.00     0.00    0.00   1    8.00     0    0    0   240   0.0  1   1    7    0   0.000    0.000    0.000  1
 21   1    1  1 0 2    20  16   100  256  256     0.00000   5.70867 2.72887e-004   432   751  -0.32   0.81   1.81   -3.87    6.96   75.86  1.200  0.000 0 2 0 2  1.000  1.000   3.15    0.00     0.00    0.00   1    8.00     0    0    0   240   0.0  1   1    7    0   0.000    0.000    0.000  1
 22   1    1  1 0 2    21  16   100  256  256     0.00000   5.70867 2.72887e-004   507   882  -0.32   0.81   1.81   -3.89    6.96   74.66  1.200  0.000 0 2 0 2  1.000  1.000   3.15    0.00     0.00    0.00   1    8.00     0    0    0   240   0.0  1   1    7    0   0.000    0.000    0.000  1
 23   1    1  1 0 2    22  16   100  256  256     0.00000   5.70867 2.72887e-004   549   955  -0.32   0.81   1.81   -3.91    6.95   73.46  1.200  0.000 0 2 0 2  1.000  1.000   3.15    0.00     0.00    0.00   1    8.00     0    0    0   240   0.0  1   1    7    0   0.000    0.000    0.000  1
 24   1    1  1 0 2    23  16   100  256  256     0.00000   5.70867 2.72887e-004   610  1060  -0.32   0.81   1.81   -3.92    6.94   72.26  1.200  0.000 0 2 0 2  1.000  1.000   3.15    0.00     0.00    0.00   1    8.00     0    0    0   240   0.0  1   1    7    0   0.000    0.000    0.000  1
 25   1    1  1 0 2    24  16   100  256  256     0.00000   5.70867 2.72887e-004   866  1506  -0.32   0.81   1.81   -3.94    6.93   71.06  1.200  0.000 0 2 0 2  1.000  1.000   3.15    0.00     0.00    0.00   1    8.00     0    0    0   240   0.0  1   1    7    0   0.000    0.000    0.000  1
 26   1    1  1 0 2    25  16   100  256  256     0.00000   5.70867 2.72887e-004   814  1415  -0.32   0.81   1.81   -3.96    6.93   69.86  1.200  0.000 0 2 0 2  1.000  1.000   3.15    0.00     0.00    0.00   1    8.00     0    0    0   240   0.0  1   1    7    0   0.000    0.000    0.000  1
 27   1    1  1 0 2    26  16   100  256  256     0.00000   5.70867 2.72887e-004   848  1474  -0.32   0.81   1.81   -3.97    6.92   68.66  1.200  0.000 0 2 0 2  1.000  1.000   3.15    0.00     0.00    0.00   1    8.00     0    0    0   240   0.0  1   1    7    0   0.000    0.000    0.000  1
 28   1    1  1 0 2    27  16   100  256  256     0.00000   5.70867 2.72887e-004   841  1462  -0.32   0.81   1.81   -3.99    6.91   67.46  1.200  0.000 0 2 0 2  1.000  1.000   3.15    0.00     0.00    0.00   1    8.00     0    0    0   240   0.0  1   1    7    0   0.000    0.000    0.000  1
 29   1    1  1 0 2    28  16   100  256  256     0.00000   5.70867 2.72887e-004   951  1653  -0.32   0.81   1.81   -4.01    6.90   66.26  1.200  0.000 0 2 0 2  1.000  1.000   3.15    0.00     0.00    0.00   1    8.00     0    0    0   240   0.0  1   1    7    0   0.000    0.000    0.000  1
 30   1    1  1 0 2    29  16   100  256  256     0.00000   5.70867 2.72887e-004  1040  1809  -0.32   0.81   1.81   -4.02    6.90   65.06  1.200  0.000 0 2 0 2  1.000  1.000   3.15    0.00     0.00    0.00   1    8.00     0    0    0   240   0.0  1   1    7    0   0.000    0.000    0.000  1
 31   1    1  1 0 2    30  16   100  256  256     0.00000   5.70867 2.72887e-004  1078  1874  -0.32   0.81   1.81   -4.04    6.89   63.86  1.200  0.000 0 2 0 2  1.000  1.000   3.15    0.00     0.00    0.00   1    8.00     0    0    0   240   0.0  1   1    7    0   0.000    0.000    0.000  1
 32   1    1  1 0 2    31  16   100  256  256     0.00000   5.70867 2.72887e-004  1087  1890  -0.32   0.81   1.81   -4.06    6.88   62.66  1.200  0.000 0 2 0 2  1.000  1.000   3.15    0.00     0.00    0.00   1    8.00     0    0    0   240   0.0  1   1    7    0   0.000    0.000    0.000  1
 33   1    1  1 0 2    32  16   100  256  256     0.00000   5.70867 2.72887e-004  1106  1923  -0.32   0.81   1.81   -4.07    6.88   61.46  1.200  0.000 0 2 0 2  1.000  1.000   3.15    0.00     0.00    0.00   1    8.00     0    0    0   240   0.0  1   1    7    0   0.000    0.000    0.000  1
 34   1    1  1 0 2    33  16   100  256  256     0.00000   5.70867 2.72887e-004  1112  1934  -0.32   0.81   1.81   -4.09    6.87   60.26  1.200  0.000 0 2 0 2  1.000  1.000   3.15    0.00     0.00    0.00   1    8.00     0    0    0   240   0.0  1   1    7    0   0.000    0.000    0.000  1
 35   1    1  1 0 2    34  16   100  256  256     0.00000   5.70867 2.72887e-004  1114  1936  -0.32   0.81   1.81   -4.11    6.86   59.06  1.200  0.000 0 2 0 2  1.000  1.000   3.15    0.00     0.00    0.00   1    8.00     0    0    0   240   0.0  1   1    7    0   0.000    0.000    0.000  1
 36   1    1  1 0 2    35  16   100  256  256     0.00000   5.70867 2.72887e-004  1113  1934  -0.32   0.81   1.81   -4.12    6.85   57.86  1.200  0.000 0 2 0 2  1.000  1.000   3.15    0.00     0.00    0.00   1    8.00     0    0    0   240   0.0  1   1    7    0   0.000    0.000    0.000  1
 37   1    1  1 0 2    36  16   100  256  256     0.00000   5.70867 2.72887e-004  1111  1931  -0.32   0.81   1.81   -4.14    6.85   56.66  1.200  0.000 0 2 0 2  1.000  1.000   3.15    0.00     0.00    0.00   1    8.00     0    0    0   240   0.0  1   1    7    0   0.000    0.000    0.000  1
 38   1    1  1 0 2    37  16   100  256  256     0.00000   5.70867 2.72887e-004  1134  1971  -0.32   0.81   1.81   -4.16    6.84   55.46  1.200  0.000 0 2 0 2  1.000  1.000   3.15    0.00     0.00    0.00   1    8.00     0    0    0   240   0.0  1   1    7    0   0.000    0.000    0.000  1
 39   1    1  1 0 2    38  16   100  256  256     0.00000   5.70867 2.72887e-004  1125  1955  -0.32   0.81   1.81   -4.17    6.83   54.26  1.200  0.000 0 2 0 2  1.000  1.000   3.15    0.00     0.00    0.00   1    8.00     0    0    0   240   0.0  1   1    7    0   0.000    0.000    0.000  1
 40   1    1  1 0 2    39  16   100  256  256     0.00000   5.70867 2.72887e-004  1135  1973  -0.32   0.81   1.81   -4.19    6.82   53.07  1.200  0.000 0 2 0 2  1.000  1.000   3.15    0.00     0.00    0.00   1    8.00     0    0    0   240   0.0  1   1    7    0   0.000    0.000    0.000  1
 41   1    1  1 0 2    40  16   100  256  256     0.00000   5.70867 2.72887e-004  1123  1953  -0.32   0.81   1.81   -4.21    6.82   51.87  1.200  0.000 0 2 0 2  1.000  1.000   3.15    0.00     0.00    0.00   1    8.00     0    0    0   240   0.0  1   1    7    0   0.000    0.000    0.000  1
 42   1    1  1 0 2    41  16   100  256  256     0.00000   5.70867 2.72887e-004  1124  1954  -0.32   0.81   1.81   -4.23    6.81   50.67  1.200  0.000 0 2 0 2  1.000  1.000   3.15    0.00     0.00    0.00   1    8.00     0    0    0   240   0.0  1   1    7    0   0.000    0.000    0.000  1
 43   1    1  1 0 2    42  16   100  256  256     0.00000   5.70867 2.72887e-004  1084  1885  -0.32   0.81   1.81   -4.24    6.80   49.47  1.200  0.000 0 2 0 2  1.000  1.000   3.15    0.00     0.00    0.00   1    8.00     0    0    0   240   0.0  1   1    7    0   0.000    0.000    0.000  1
 44   1    1  1 0 2    43  16   100  256  256     0.00000   5.70867 2.72887e-004  1053  1831  -0.32   0.81   1.81   -4.26    6.79   48.27  1.200  0.000 0 2 0 2  1.000  1.000   3.15    0.00     0.00    0.00   1    8.00     0    0    0   240   0.0  1   1    7    0   0.000    0.000    0.000  1
 45   1    1  1 0 2    44  16   100  256  256     0.00000   5.70867 2.72887e-004  1059  1840  -0.32   0.81   1.81   -4.28    6.79   47.07  1.200  0.000 0 2 0 2  1.000  1.000   3.15    0.00     0.00    0.00   1    8.00     0    0    0   240   0.0  1   1    7    0   0.000    0.000    0.000  1
 46   1    1  1 0 2    45  16   100  256  256     0.00000   5.70867 2.72887e-004  1044  1815  -0.32   0.81   1.81   -4.29    6.78   45.87  1.200  0.000 0 2 0 2  1.000  1.000   3.15    0.00     0.00    0.00   1    8.00     0    0    0   240   0.0  1   1    7    0   0.000    0.000    0.000  1
 47   1    1  1 0 2    46  16   100  256  256     0.00000   5.70867 2.72887e-004  1039  1806  -0.32   0.81   1.81   -4.31    6.77   44.67  1.200  0.000 0 2 0 2  1.000  1.000   3.15    0.00     0.00    0.00   1    8.00     0    0    0   240   0.0  1   1    7    0   0.000    0.000    0.000  1
 48   1    1  1 0 2    47  16   100  256  256     0.00000   5.70867 2.72887e-004  1031  1792  -0.32   0.81   1.81   -4.33    6.77   43.47  1.200  0.000 0 2 0 2  1.000  1.000   3.15    0.00     0.00    0.00   1    8.00     0    0    0   240   0.0  1   1    7    0   0.000    0.000    0.000  1
 49   1    1  1 0 2    48  16   100  256  256     0.00000   5.70867 2.72887e-004  1032  1794  -0.32   0.81   1.81   -4.34    6.76   42.27  1.200  0.000 0 2 0 2  1.000  1.000   3.15    0.00     0.00    0.00   1    8.00     0    0    0   240   0.0  1   1    7    0   0.000    0.000    0.000  1
 50   1    1  1 0 2    49  16   100  256  256     0.00000   5.70867 2.72887e-004  1019  1771  -0.32   0.81   1.81   -4.36    6.75   41.07  1.200  0.000 0 2 0 2  1.000  1.000   3.15    0.00     0.00    0.00   1    8.00     0    0    0   240   0.0  1   1    7    0   0.000    0.000    0.000  1
 51   1    1  1 0 2    50  16   100  256  256     0.00000   5.70867 2.72887e-004  1036  1801  -0.32   0.81   1.81   -4.38    6.74   39.87  1.200  0.000 0 2 0 2  1.000  1.000   3.15    0.00     0.00    0.00   1    8.00     0    0    0   240   0.0  1   1    7    0   0.000    0.000    0.000  1
 52   1    1  1 0 2    51  16   100  256  256     0.00000   5.70867 2.72887e-004  1043  1812  -0.32   0.81   1.81   -4.39    6.74   38.67  1.200  0.000 0 2 0 2  1.000  1.000   3.15    0.00     0.00    0.00   1    8.00     0    0    0   240   0.0  1   1    7    0   0.000    0.000    0.000  1
 53   1    1  1 0 2    52  16   100  256  256     0.00000   5.70867 2.72887e-004  1056  1835  -0.32   0.81   1.81   -4.41    6.73   37.47  1.200  0.000 0 2 0 2  1.000  1.000   3.15    0.00     0.00    0.00   1    8.00     0    0    0   240   0.0  1   1    7    0   0.000    0.000    0.000  1
 54   1    1  1 0 2    53  16   100  256  256     0.00000   5.70867 2.72887e-004  1065  1851  -0.32   0.81   1.81   -4.43    6.72   36.27  1.200  0.000 0 2 0 2  1.000  1.000   3.15    0.00     0.00    0.00   1    8.00     0    0    0   240   0.0  1   1    7    0   0.000    0.000    0.000  1
 55   1    1  1 0 2    54  16   100  256  256     0.00000   5.70867 2.72887e-004  1082  1881  -0.32   0.81   1.81   -4.44    6.71   35.07  1.200  0.000 0 2 0 2  1.000  1.000   3.15    0.00     0.00    0.00   1    8.00     0    0    0   240   0.0  1   1    7    0   0.000    0.000    0.000  1
 56   1    1  1 0 2    55  16   100  256  256     0.00000   5.70867 2.72887e-004  1101  1913  -0.32   0.81   1.81   -4.46    6.71   33.87  1.200  0.000 0 2 0 2  1.000  1.000   3.15    0.00     0.00    0.00   1    8.00     0    0    0   240   0.0  1   1    7    0   0.000    0.000    0.000  1
 57   1    1  1 0 2    56  16   100  256  256     0.00000   5.70867 2.72887e-004  1168  2031  -0.32   0.81   1.81   -4.48    6.70   32.67  1.200  0.000 0 2 0 2  1.000  1.000   3.15    0.00     0.00    0.00   1    8.00     0    0    0   240   0.0  1   1    7    0   0.000    0.000    0.000  1
 58   1    1  1 0 2    57  16   100  256  256     0.00000   5.70867 2.72887e-004  1177  2046  -0.32   0.81   1.81   -4.49    6.69   31.47  1.200  0.000 0 2 0 2  1.000  1.000   3.15    0.00     0.00    0.00   1    8.00     0    0    0   240   0.0  1   1    7    0   0.000    0.000    0.000  1
 59   1    1  1 0 2    58  16   100  256  256     0.00000   5.70867 2.72887e-004  1187  2064  -0.32   0.81   1.81   -4.51    6.69   30.27  1.200  0.000 0 2 0 2  1.000  1.000   3.15    0.00     0.00    0.00   1    8.00     0    0    0   240   0.0  1   1    7    0   0.000    0.000    0.000  1
 60   1    1  1 0 2    59  16   100  256  256     0.00000   5.70867 2.72887e-004  1175  2043  -0.32   0.81   1.81   -4.53    6.68   29.07  1.200  0.000 0 2 0 2  1.000  1.000   3.15    0.00     0.00    0.00   1    8.00     0    0    0   240   0.0  1   1    7    0   0.000    0.000    0.000  1
 61   1    1  1 0 2    60  16   100  256  256     0.00000   5.70867 2.72887e-004  1116  1941  -0.32   0.81   1.81   -4.54    6.67   27.87  1.200  0.000 0 2 0 2  1.000  1.000   3.15    0.00     0.00    0.00   1    8.00     0    0    0   240   0.0  1   1    7    0   0.000    0.000    0.000  1
 62   1    1  1 0 2    61  16   100  256  256     0.00000   5.70867 2.72887e-004  1110  1930  -0.32   0.81   1.81   -4.56    6.66   26.67  1.200  0.000 0 2 0 2  1.000  1.000   3.15    0.00     0.00    0.00   1    8.00     0    0    0   240   0.0  1   1    7    0   0.000    0.000    0.000  1
 63   1    1  1 0 2    62  16   100  256  256     0.00000   5.70867 2.72887e-004  1168  2030  -0.32   0.81   1.81   -4.58    6.66   25.47  1.200  0.000 0 2 0 2  1.000  1.000   3.15    0.00     0.00    0.00   1    8.00     0    0    0   240   0.0  1   1    7    0   0.000    0.000    0.000  1
 64   1    1  1 0 2    63  16   100  256  256     0.00000   5.70867 2.72887e-004  1263  2195  -0.32   0.81   1.81   -4.59    6.65   24.27  1.200  0.000 0 2 0 2  1.000  1.000   3.15    0.00     0.00    0.00   1    8.00     0    0    0   240   0.0  1   1    7    0   0.000    0.000    0.000  1
 65   1    1  1 0 2    64  16   100  256  256     0.00000   5.70867 2.72887e-004  1412  2454  -0.32   0.81   1.81   -4.61    6.64   23.07  1.200  0.000 0 2 0 2  1.000  1.000   3.15    0.00     0.00    0.00   1    8.00     0    0    0   240   0.0  1   1    7    0   0.000    0.000    0.000  1
 66   1    1  1 0 2    65  16   100  256  256     0.00000   5.70867 2.72887e-004  1784  3102  -0.32   0.81   1.81   -4.63    6.63   21.87  1.200  0.000 0 2 0 2  1.000  1.000   3.15    0.00     0.00    0.00   1    8.00     0    0    0   240   0.0  1   1    7    0   0.000    0.000    0.000  1
 67   1    1  1 0 2    66  16   100  256  256     0.00000   5.70867 2.72887e-004  1785  3103  -0.32   0.81   1.81   -4.64    6.63   20.67  1.200  0.000 0 2 0 2  1.000  1.000   3.15    0.00     0.00    0.00   1    8.00     0    0    0   240   0.0  1   1    7    0   0.000    0.000    0.000  1
 68   1    1  1 0 2    67  16   100  256  256     0.00000   5.70867 2.72887e-004  1309  2276  -0.32   0.81   1.81   -4.66    6.62   19.47  1.200  0.000 0 2 0 2  1.000  1.000   3.15    0.00     0.00    0.00   1    8.00     0    0    0   240   0.0  1   1    7    0   0.000    0.000    0.000  1
 69   1    1  1 0 2    68  16   100  256  256     0.00000   5.70867 2.72887e-004  1236  2149  -0.32   0.81   1.81   -4.68    6.61   18.27  1.200  0.000 0 2 0 2  1.000  1.000   3.15    0.00     0.00    0.00   1    8.00     0    0    0   240   0.0  1   1    7    0   0.000    0.000    0.000  1
 70   1    1  1 0 2    69  16   100  256  256     0.00000   5.70867 2.72887e-004  1240  2156  -0.32   0.81   1.81   -4.70    6.60   17.07  1.200  0.000 0 2 0 2  1.000  1.000   3.15    0.00     0.00    0.00   1    8.00     0    0    0   240   0.0  1   1    7    0   0.000    0.000    0.000  1
 71   1    1  1 0 2    70  16   100  256  256     0.00000   5.70867 2.72887e-004  1188  2064  -0.32   0.81   1.81   -4.71    6.60   15.87  1.200  0.000 0 2 0 2  1.000  1.000   3.15    0.00     0.00    0.00   1    8.00     0    0    0   240   0.0  1   1    7    0   0.000    0.000    0.000  1
 72   1    1  1 0 2    71  16   100  256  256     0.00000   5.70867 2.72887e-004  1205  2094  -0.32   0.81   1.81   -4.73    6.59   14.67  1.200  0.000 0 2 0 2  1.000  1.000   3.15    0.00     0.00    0.00   1    8.00     0    0    0   240   0.0  1   1    7    0   0.000    0.000    0.000  1
 73   1    1  1 0 2    72  16   100  256  256     0.00000   5.70867 2.72887e-004  1251  2175  -0.32   0.81   1.81   -4.75    6.58   13.47  1.200  0.000 0 2 0 2  1.000  1.000   3.15    0.00     0.00    0.00   1    8.00     0    0    0   240   0.0  1   1    7    0   0.000    0.000    0.000  1
 74   1    1  1 0 2    73  16   100  256  256     0.00000   5.70867 2.72887e-004  1270  2208  -0.32   0.81   1.81   -4.76    6.58   12.27  1.200  0.000 0 2 0 2  1.000  1.000   3.15    0.00     0.00    0.00   1    8.00     0    0    0   240   0.0  1   1    7    0   0.000    0.000    0.000  1
 75   1    1  1 0 2    74  16   100  256  256     0.00000   5.70867 2.72887e-004  1267  2203  -0.32   0.81   1.81   -4.78    6.57   11.07  1.200  0.000 0 2 0 2  1.000  1.000   3.15    0.00     0.00    0.00   1    8.00     0    0    0   240   0.0  1   1    7    0   0.000    0.000    0.000  1
 76   1    1  1 0 2    75  16   100  256  256     0.00000   5.70867 2.72887e-004  1527  2654  -0.32   0.81   1.81   -4.80    6.56    9.87  1.200  0.000 0 2 0 2  1.000  1.000   3.15    0.00     0.00    0.00   1    8.00     0    0    0   240   0.0  1   1    7    0   0.000    0.000    0.000  1
 77   1    1  1 0 2    76  16   100  256  256     0.00000   5.70867 2.72887e-004  1772  3081  -0.32   0.81   1.81   -4.81    6.55    8.67  1.200  0.000 0 2 0 2  1.000  1.000   3.15    0.00     0.00    0.00   1    8.00     0    0    0   240   0.0  1   1    7    0   0.000    0.000    0.000  1
 78   1    1  1 0 2    77  16   100  256  256     0.00000   5.70867 2.72887e-004  2050  3564  -0.32   0.81   1.81   -4.83    6.55    7.47  1.200  0.000 0 2 0 2  1.000  1.000   3.15    0.00     0.00    0.00   1    8.00     0    0    0   240   0.0  1   1    7    0   0.000    0.000    0.000  1
 79   1    1  1 0 2    78  16   100  256  256     0.00000   5.70867 2.72887e-004  1603  2787  -0.32   0.81   1.81   -4.85    6.54    6.27  1.200  0.000 0 2 0 2  1.000  1.000   3.15    0.00     0.00    0.00   1    8.00     0    0    0   240   0.0  1   1    7    0   0.000    0.000    0.000  1
 80   1    1  1 0 2    79  16   100  256  256     0.00000   5.70867 2.72887e-004  1085  1887  -0.32   0.81   1.81   -4.86    6.53    5.07  1.200  0.000 0 2 0 2  1.000  1.000   3.15    0.00     0.00    0.00   1    8.00     0    0    0   240   0.0  1   1    7    0   0.000    0.000    0.000  1
 81   1    1  1 0 2    80  16   100  256  256     0.00000   5.70867 2.72887e-004  1049  1823  -0.32   0.81   1.81   -4.88    6.52    3.87  1.200  0.000 0 2 0 2  1.000  1.000   3.15    0.00     0.00    0.00   1    8.00     0    0    0   240   0.0  1   1    7    0   0.000    0.000    0.000  1
 82   1    1  1 0 2    81  16   100  256  256     0.00000   5.70867 2.72887e-004  1002  1741  -0.32   0.81   1.81   -4.90    6.52    2.67  1.200  0.000 0 2 0 2  1.000  1.000   3.15    0.00     0.00    0.00   1    8.00     0    0    0   240   0.0  1   1    7    0   0.000    0.000    0.000  1
 83   1    1  1 0 2    82  16   100  256  256     0.00000   5.70867 2.72887e-004   999  1737  -0.32   0.81   1.81   -4.91    6.51    1.47  1.200  0.000 0 2 0 2  1.000  1.000   3.15    0.00     0.00    0.00   1    8.00     0    0    0   240   0.0  1   1    7    0   0.000    0.000    0.000  1
 84   1    1  1 0 2    83  16   100  256  256     0.00000   5.70867 2.72887e-004  1064  1849  -0.32   0.81   1.81   -4.93    6.50    0.27  1.200  0.000 0 2 0 2  1.000  1.000   3.15    0.00     0.00    0.00   1    8.00     0    0    0   240   0.0  1   1    7    0   0.000    0.000    0.000  1
