# === DATA DESCRIPTION FILE ======================================================
#
# CAUTION - Investigational device.
# Limited by Federal Law to investigational use.
#
#
# CLINICAL TRYOUT             Research image export tool     V4.2
#
# === GENERAL INFORMATION ========================================================
#
.    Protocol name                      :   WIP 3D FLAIR Sag UMich SENSE
.    Series Type                        :   Image   MRSERIES
.    Acquisition nr                     :   4
.    Reconstruction nr                  :   1
.    Scan Duration [sec]                :   528
.    Max. number of cardiac phases      :   1
.    Max. number of echoes              :   1
.    Max. number of slices/locations    :   327
.    Max. number of dynamics            :   1
.    Max. number of mixes               :   1
.    Patient position                   :   Head First Supine
.    Preparation direction              :   Anterior-Posterior
.    Technique                          :   TIR
.    Scan resolution  (x, y)            :   216  220
.    Scan mode                          :   3D
.    Repetition time [ms]               :   8000.000  
.    FOV (ap,fh,rl) [mm]                :   240.000  200.000  179.850
.    Water Fat shift [pixels]           :   0.907
.    Angulation midslice(ap,fh,rl)[degr]:   -0.323  0.812  1.814
.    Off Centre midslice(ap,fh,rl) [mm] :   -4.955  6.492  -1.529
.    Flow compensation <0=no 1=yes> ?   :   1
.    Presaturation     <0=no 1=yes> ?   :   0
.    Phase encoding velocity [cm/sec]   :   0.000000  0.000000  0.000000
.    MTC               <0=no 1=yes> ?   :   0
.    SPIR              <0=no 1=yes> ?   :   1
.    EPI factor        <0,1=no EPI>     :   1
.    Dynamic scan      <0=no 1=yes> ?   :   0
.    Diffusion         <0=no 1=yes> ?   :   0
.    Diffusion echo time [ms]           :   0.0000
.    Max. number of diffusion values    :   1
.    Max. number of gradient orients    :   1
.    Number of label types   <0=no ASL> :   0
#
# === PIXEL VALUES =============================================================
#  PV = pixel value in REC file, FP = floating point value, DV = displayed value on console
#  RS = rescale slope,           RI = rescale intercept,    SS = scale slope
#  DV = PV * RS + RI             FP = DV / (RS * SS)
#
# === IMAGE INFORMATION DEFINITION =============================================
#  The rest of this file contains ONE line per image, this line contains the following information:
#
#  slice number                             (integer)
#  echo number                              (integer)
#  dynamic scan number                      (integer)
#  cardiac phase number                     (integer)
#  image_type_mr                            (integer)
#  scanning sequence                        (integer)
#  index in REC file (in images)            (integer)
#  image pixel size (in bits)               (integer)
#  scan percentage                          (integer)
#  recon resolution (x y)                   (2*integer)
#  rescale intercept                        (float)
#  rescale slope                            (float)
#  scale slope                              (float)
#  window center                            (integer)
#  window width                             (integer)
#  image angulation (ap,fh,rl in degrees )  (3*float)
#  image offcentre (ap,fh,rl in mm )        (3*float)
#  slice thickness (in mm )                 (float)
#  slice gap (in mm )                       (float)
#  image_display_orientation                (integer)
#  slice orientation ( TRA/SAG/COR )        (integer)
#  fmri_status_indication                   (integer)
#  image_type_ed_es  (end diast/end syst)   (integer)
#  pixel spacing (x,y) (in mm)              (2*float)
#  echo_time                                (float)
#  dyn_scan_begin_time                      (float)
#  trigger_time                             (float)
#  diffusion_b_factor                       (float)
#  number of averages                       (integer)
#  image_flip_angle (in degrees)            (float)
#  cardiac frequency   (bpm)                (integer)
#  minimum RR-interval (in ms)              (integer)
#  maximum RR-interval (in ms)              (integer)
#  TURBO factor  <0=no turbo>               (integer)
#  Inversion delay (in ms)                  (float)
#  diffusion b value number    (imagekey!)  (integer)
#  gradient orientation number (imagekey!)  (integer)
#  contrast type                            (string)
#  diffusion anisotropy type                (string)
#  diffusion (ap, fh, rl)                   (3*float)
#  label type (ASL)            (imagekey!)  (integer)
#
# === IMAGE INFORMATION ==========================================================
#  sl ec  dyn ph ty    idx pix scan% rec size                (re)scale              window        angulation              offcentre        thick   gap   info      spacing     echo     dtime   ttime    diff  avg  flip    freq   RR-int  turbo delay b grad cont anis         diffusion       L.ty

  1   1    1  1 0 0     0  16    79  576  576     0.00000   5.34139 1.41547e-003    14    24  -0.32   0.81   1.81   -3.70    7.04   88.11  1.100 -0.550 0 2 0 2  0.417  0.417 332.87    0.00     0.00    0.00   1   90.00     0    0    0   110 2400.0  1   1    8    0   0.000    0.000    0.000  1
  2   1    1  1 0 0     1  16    79  576  576     0.00000   5.34139 1.41547e-003    31    54  -0.32   0.81   1.81   -3.71    7.03   87.56  1.100 -0.550 0 2 0 2  0.417  0.417 332.87    0.00     0.00    0.00   1   90.00     0    0    0   110 2400.0  1   1    8    0   0.000    0.000    0.000  1
  3   1    1  1 0 0     2  16    79  576  576     0.00000   5.34139 1.41547e-003    31    53  -0.32   0.81   1.81   -3.72    7.03   87.01  1.100 -0.550 0 2 0 2  0.417  0.417 332.87    0.00     0.00    0.00   1   90.00     0    0    0   110 2400.0  1   1    8    0   0.000    0.000    0.000  1
  4   1    1  1 0 0     3  16    79  576  576     0.00000   5.34139 1.41547e-003    26    46  -0.32   0.81   1.81   -3.72    7.03   86.46  1.100 -0.550 0 2 0 2  0.417  0.417 332.87    0.00     0.00    0.00   1   90.00     0    0    0   110 2400.0  1   1    8    0   0.000    0.000    0.000  1
  5   1    1  1 0 0     4  16    79  576  576     0.00000   5.34139 1.41547e-003    24    43  -0.32   0.81   1.81   -3.73    7.02   85.91  1.100 -0.550 0 2 0 2  0.417  0.417 332.87    0.00     0.00    0.00   1   90.00     0    0    0   110 2400.0  1   1    8    0   0.000    0.000    0.000  1
  6   1    1  1 0 0     5  16    79  576  576     0.00000   5.34139 1.41547e-003    24    41  -0.32   0.81   1.81   -3.74    7.02   85.36  1.100 -0.550 0 2 0 2  0.417  0.417 332.87    0.00     0.00    0.00   1   90.00     0    0    0   110 2400.0  1   1    8    0   0.000    0.000    0.000  1
  7   1    1  1 0 0     6  16    79  576  576     0.00000   5.34139 1.41547e-003    25    43  -0.32   0.81   1.81   -3.75    7.02   84.81  1.100 -0.550 0 2 0 2  0.417  0.417 332.87    0.00     0.00    0.00   1   90.00     0    0    0   110 2400.0  1   1    8    0   0.000    0.000    0.000  1
  8   1    1  1 0 0     7  16    79  576  576     0.00000   5.34139 1.41547e-003    25    43  -0.32   0.81   1.81   -3.76    7.01   84.26  1.100 -0.550 0 2 0 2  0.417  0.417 332.87    0.00     0.00    0.00   1   90.00     0    0    0   110 2400.0  1   1    8    0   0.000    0.000    0.000  1
  9   1    1  1 0 0     8  16    79  576  576     0.00000   5.34139 1.41547e-003    24    41  -0.32   0.81   1.81   -3.76    7.01   83.71  1.100 -0.550 0 2 0 2  0.417  0.417 332.87    0.00     0.00    0.00   1   90.00     0    0    0   110 2400.0  1   1    8    0   0.000    0.000    0.000  1
 10   1    1  1 0 0     9  16    79  576  576     0.00000   5.34139 1.41547e-003    22    38  -0.32   0.81   1.81   -3.77    7.01   83.16  1.100 -0.550 0 2 0 2  0.417  0.417 332.87    0.00     0.00    0.00   1   90.00     0    0    0   110 2400.0  1   1    8    0   0.000    0.000    0.000  1
 11   1    1  1 0 0    10  16    79  576  576     0.00000   5.34139 1.41547e-003    21    37  -0.32   0.81   1.81   -3.78    7.00   82.61  1.100 -0.550 0 2 0 2  0.417  0.417 332.87    0.00     0.00    0.00   1   90.00     0    0    0   110 2400.0  1   1    8    0   0.000    0.000    0.000  1
 12   1    1  1 0 0    11  16    79  576  576     0.00000   5.34139 1.41547e-003    20    34  -0.32   0.81   1.81   -3.79    7.00   82.06  1.100 -0.550 0 2 0 2  0.417  0.417 332.87    0.00     0.00    0.00   1   90.00     0    0    0   110 2400.0  1   1    8    0   0.000    0.000    0.000  1
 13   1    1  1 0 0    12  16    79  576  576     0.00000   5.34139 1.41547e-003    21    36  -0.32   0.81   1.81   -3.79    7.00   81.51  1.100 -0.550 0 2 0 2  0.417  0.417 332.87    0.00     0.00    0.00   1   90.00     0    0    0   110 2400.0  1   1    8    0   0.000    0.000    0.000  1
 14   1    1  1 0 0    13  16    79  576  576     0.00000   5.34139 1.41547e-003    22    38  -0.32   0.81   1.81   -3.80    6.99   80.96  1.100 -0.550 0 2 0 2  0.417  0.417 332.87    0.00     0.00    0.00   1   90.00     0    0    0   110 2400.0  1   1    8    0   0.000    0.000    0.000  1
 15   1    1  1 0 0    14  16    79  576  576     0.00000   5.34139 1.41547e-003    24    41  -0.32   0.81   1.81   -3.81    6.99   80.41  1.100 -0.550 0 2 0 2  0.417  0.417 332.87    0.00     0.00    0.00   1   90.00     0    0    0   110 2400.0  1   1    8    0   0.000    0.000    0.000  1
 16   1    1  1 0 0    15  16    79  576  576     0.00000   5.34139 1.41547e-003    25    44  -0.32   0.81   1.81   -3.82    6.99   79.86  1.100 -0.550 0 2 0 2  0.417  0.417 332.87    0.00     0.00    0.00   1   90.00     0    0    0   110 2400.0  1   1    8    0   0.000    0.000    0.000  1
 17   1    1  1 0 0    16  16    79  576  576     0.00000   5.34139 1.41547e-003    27    47  -0.32   0.81   1.81   -3.82    6.98   79.31  1.100 -0.550 0 2 0 2  0.417  0.417 332.87    0.00     0.00    0.00   1   90.00     0    0    0   110 2400.0  1   1    8    0   0.000    0.000    0.000  1
 18   1    1  1 0 0    17  16    79  576  576     0.00000   5.34139 1.41547e-003    30    52  -0.32   0.81   1.81   -3.83    6.98   78.76  1.100 -0.550 0 2 0 2  0.417  0.417 332.87    0.00     0.00    0.00   1   90.00     0    0    0   110 2400.0  1   1    8    0   0.000    0.000    0.000  1
 19   1    1  1 0 0    18  16    79  576  576     0.00000   5.34139 1.41547e-003    33    57  -0.32   0.81   1.81   -3.84    6.98   78.21  1.100 -0.550 0 2 0 2  0.417  0.417 332.87    0.00     0.00    0.00   1   90.00     0    0    0   110 2400.0  1   1    8    0   0.000    0.000    0.000  1
 20   1    1  1 0 0    19  16    79  576  576     0.00000   5.34139 1.41547e-003    40    70  -0.32   0.81   1.81   -3.85    6.97   77.66  1.100 -0.550 0 2 0 2  0.417  0.417 332.87    0.00     0.00    0.00   1   90.00     0    0    0   110 2400.0  1   1    8    0   0.000    0.000    0.000  1
 21   1    1  1 0 0    20  16    79  576  576     0.00000   5.34139 1.41547e-003    63   110  -0.32   0.81   1.81   -3.86    6.97   77.11  1.100 -0.550 0 2 0 2  0.417  0.417 332.87    0.00     0.00    0.00   1   90.00     0    0    0   110 2400.0  1   1    8    0   0.000    0.000    0.000  1
 22   1    1  1 0 0    21  16    79  576  576     0.00000   5.34139 1.41547e-003   123   214  -0.32   0.81   1.81   -3.86    6.97   76.56  1.100 -0.550 0 2 0 2  0.417  0.417 332.87    0.00     0.00    0.00   1   90.00     0    0    0   110 2400.0  1   1    8    0   0.000    0.000    0.000  1
 23   1    1  1 0 0    22  16    79  576  576     0.00000   5.34139 1.41547e-003   176   305  -0.32   0.81   1.81   -3.87    6.96   76.01  1.100 -0.550 0 2 0 2  0.417  0.417 332.87    0.00     0.00    0.00   1   90.00     0    0    0   110 2400.0  1   1    8    0   0.000    0.000    0.000  1
 24   1    1  1 0 0    23  16    79  576  576     0.00000   5.34139 1.41547e-003   219   381  -0.32   0.81   1.81   -3.88    6.96   75.46  1.100 -0.550 0 2 0 2  0.417  0.417 332.87    0.00     0.00    0.00   1   90.00     0    0    0   110 2400.0  1   1    8    0   0.000    0.000    0.000  1
 25   1    1  1 0 0    24  16    79  576  576     0.00000   5.34139 1.41547e-003   254   442  -0.32   0.81   1.81   -3.89    6.96   74.91  1.100 -0.550 0 2 0 2  0.417  0.417 332.87    0.00     0.00    0.00   1   90.00     0    0    0   110 2400.0  1   1    8    0   0.000    0.000    0.000  1
 26   1    1  1 0 0    25  16    79  576  576     0.00000   5.34139 1.41547e-003   272   472  -0.32   0.81   1.81   -3.89    6.95   74.36  1.100 -0.550 0 2 0 2  0.417  0.417 332.87    0.00     0.00    0.00   1   90.00     0    0    0   110 2400.0  1   1    8    0   0.000    0.000    0.000  1
 27   1    1  1 0 0    26  16    79  576  576     0.00000   5.34139 1.41547e-003   277   481  -0.32   0.81   1.81   -3.90    6.95   73.81  1.100 -0.550 0 2 0 2  0.417  0.417 332.87    0.00     0.00    0.00   1   90.00     0    0    0   110 2400.0  1   1    8    0   0.000    0.000    0.000  1
 28   1    1  1 0 0    27  16    79  576  576     0.00000   5.34139 1.41547e-003   281   489  -0.32   0.81   1.81   -3.91    6.95   73.26  1.100 -0.550 0 2 0 2  0.417  0.417 332.87    0.00     0.00    0.00   1   90.00     0    0    0   110 2400.0  1   1    8    0   0.000    0.000    0.000  1
 29   1    1  1 0 0    28  16    79  576  576     0.00000   5.34139 1.41547e-003   285   495  -0.32   0.81   1.81   -3.92    6.94   72.71  1.100 -0.550 0 2 0 2  0.417  0.417 332.87    0.00     0.00    0.00   1   90.00     0    0    0   110 2400.0  1   1    8    0   0.000    0.000    0.000  1
 30   1    1  1 0 0    29  16    79  576  576     0.00000   5.34139 1.41547e-003   307   534  -0.32   0.81   1.81   -3.92    6.94   72.16  1.100 -0.550 0 2 0 2  0.417  0.417 332.87    0.00     0.00    0.00   1   90.00     0    0    0   110 2400.0  1   1    8    0   0.000    0.000    0.000  1
 31   1    1  1 0 0    30  16    79  576  576     0.00000   5.34139 1.41547e-003   320   557  -0.32   0.81   1.81   -3.93    6.94   71.61  1.100 -0.550 0 2 0 2  0.417  0.417 332.87    0.00     0.00    0.00   1   90.00     0    0    0   110 2400.0  1   1    8    0   0.000    0.000    0.000  1
 32   1    1  1 0 0    31  16    79  576  576     0.00000   5.34139 1.41547e-003   346   602  -0.32   0.81   1.81   -3.94    6.93   71.06  1.100 -0.550 0 2 0 2  0.417  0.417 332.87    0.00     0.00    0.00   1   90.00     0    0    0   110 2400.0  1   1    8    0   0.000    0.000    0.000  1
 33   1    1  1 0 0    32  16    79  576  576     0.00000   5.34139 1.41547e-003   405   704  -0.32   0.81   1.81   -3.95    6.93   70.51  1.100 -0.550 0 2 0 2  0.417  0.417 332.87    0.00     0.00    0.00   1   90.00     0    0    0   110 2400.0  1   1    8    0   0.000    0.000    0.000  1
 34   1    1  1 0 0    33  16    79  576  576     0.00000   5.34139 1.41547e-003   469   815  -0.32   0.81   1.81   -3.96    6.93   69.96  1.100 -0.550 0 2 0 2  0.417  0.417 332.87    0.00     0.00    0.00   1   90.00     0    0    0   110 2400.0  1   1    8    0   0.000    0.000    0.000  1
 35   1    1  1 0 0    34  16    79  576  576     0.00000   5.34139 1.41547e-003   513   891  -0.32   0.81   1.81   -3.96    6.92   69.41  1.100 -0.550 0 2 0 2  0.417  0.417 332.87    0.00     0.00    0.00   1   90.00     0    0    0   110 2400.0  1   1    8    0   0.000    0.000    0.000  1
 36   1    1  1 0 0    35  16    79  576  576     0.00000   5.34139 1.41547e-003   524   911  -0.32   0.81   1.81   -3.97    6.92   68.86  1.100 -0.550 0 2 0 2  0.417  0.417 332.87    0.00     0.00    0.00   1   90.00     0    0    0   110 2400.0  1   1    8    0   0.000    0.000    0.000  1
 37   1    1  1 0 0    36  16    79  576  576     0.00000   5.34139 1.41547e-003   537   934  -0.32   0.81   1.81   -3.98    6.92   68.31  1.100 -0.550 0 2 0 2  0.417  0.417 332.87    0.00     0.00    0.00   1   90.00     0    0    0   110 2400.0  1   1    8    0   0.000    0.000    0.000  1
 38   1    1  1 0 0    37  16    79  576  576     0.00000   5.34139 1.41547e-003   509   885  -0.32   0.81   1.81   -3.99    6.91   67.76  1.100 -0.550 0 2 0 2  0.417  0.417 332.87    0.00     0.00    0.00   1   90.00     0    0    0   110 2400.0  1   1    8    0   0.000    0.000    0.000  1
 39   1    1  1 0 0    38  16    79  576  576     0.00000   5.34139 1.41547e-003   484   841  -0.32   0.81   1.81   -3.99    6.91   67.21  1.100 -0.550 0 2 0 2  0.417  0.417 332.87    0.00     0.00    0.00   1   90.00     0    0    0   110 2400.0  1   1    8    0   0.000    0.000    0.000  1
 40   1    1  1 0 0    39  16    79  576  576     0.00000   5.34139 1.41547e-003   474   825  -0.32   0.81   1.81   -4.00    6.91   66.66  1.100 -0.550 0 2 0 2  0.417  0.417 332.87    0.00     0.00    0.00   1   90.00     0    0    0   110 2400.0  1   1    8    0   0.000    0.000    0.000  1
 41   1    1  1 0 0    40  16    79  576  576     0.00000   5.34139 1.41547e-003   484   842  -0.32   0.81   1.81   -4.01    6.90   66.11  1.100 -0.550 0 2 0 2  0.417  0.417 332.87    0.00     0.00    0.00   1   90.00     0    0    0   110 2400.0  1   1    8    0   0.000    0.000    0.000  1
 42   1    1  1 0 0    41  16    79  576  576     0.00000   5.34139 1.41547e-003   487   846  -0.32   0.81   1.81   -4.02    6.90   65.56  1.100 -0.550 0 2 0 2  0.417  0.417 332.87    0.00     0.00    0.00   1   90.00     0    0    0   110 2400.0  1   1    8    0   0.000    0.000    0.000  1
 43   1    1  1 0 0    42  16    79  576  576     0.00000   5.34139 1.41547e-003   486   845  -0.32   0.81   1.81   -4.02    6.90   65.01  1.100 -0.550 0 2 0 2  0.417  0.417 332.87    0.00     0.00    0.00   1   90.00     0    0    0   110 2400.0  1   1    8    0   0.000    0.000    0.000  1
 44   1    1  1 0 0    43  16    79  576  576     0.00000   5.34139 1.41547e-003   459   798  -0.32   0.81   1.81   -4.03    6.89   64.46  1.100 -0.550 0 2 0 2  0.417  0.417 332.87    0.00     0.00    0.00   1   90.00     0    0    0   110 2400.0  1   1    8    0   0.000    0.000    0.000  1
 45   1    1  1 0 0    44  16    79  576  576     0.00000   5.34139 1.41547e-003   443   770  -0.32   0.81   1.81   -4.04    6.89   63.91  1.100 -0.550 0 2 0 2  0.417  0.417 332.87    0.00     0.00    0.00   1   90.00     0    0    0   110 2400.0  1   1    8    0   0.000    0.000    0.000  1
 46   1    1  1 0 0    45  16    79  576  576     0.00000   5.34139 1.41547e-003   441   767  -0.32   0.81   1.81   -4.05    6.89   63.36  1.100 -0.550 0 2 0 2  0.417  0.417 332.87    0.00     0.00    0.00   1   90.00     0    0    0   110 2400.0  1   1    8    0   0.000    0.000    0.000  1
 47   1    1  1 0 0    46  16    79  576  576     0.00000   5.34139 1.41547e-003   456   793  -0.32   0.81   1.81   -4.06    6.88   62.81  1.100 -0.550 0 2 0 2  0.417  0.417 332.87    0.00     0.00    0.00   1   90.00     0    0    0   110 2400.0  1   1    8    0   0.000    0.000    0.000  1
 48   1    1  1 0 0    47  16    79  576  576     0.00000   5.34139 1.41547e-003   531   923  -0.32   0.81   1.81   -4.06    6.88   62.26  1.100 -0.550 0 2 0 2  0.417  0.417 332.87    0.00     0.00    0.00   1   90.00     0    0    0   110 2400.0  1   1    8    0   0.000    0.000    0.000  1
 49   1    1  1 0 0    48  16    79  576  576     0.00000   5.34139 1.41547e-003   566   984  -0.32   0.81   1.81   -4.07    6.88   61.71  1.100 -0.550 0 2 0 2  0.417  0.417 332.87    0.00     0.00    0.00   1   90.00     0    0    0   110 2400.0  1   1    8    0   0.000    0.000    0.000  1
 50   1    1  1 0 0    49  16    79  576  576     0.00000   5.34139 1.41547e-003   585  1016  -0.32   0.81   1.81   -4.08    6.87   61.16  1.100 -0.550 0 2 0 2  0.417  0.417 332.87    0.00     0.00    0.00   1   90.00     0    0    0   110 2400.0  1   1    8    0   0.000    0.000    0.000  1
 51   1    1  1 0 0    50  16    79  576  576     0.00000   5.34139 1.41547e-003   605  1051  -0.32   0.81   1.81   -4.09    6.87   60.61  1.100 -0.550 0 2 0 2  0.417  0.417 332.87    0.00     0.00    0.00   1   90.00     0    0    0   110 2400.0  1   1    8    0   0.000    0.000    0.000  1
 52   1    1  1 0 0    51  16    79  576  576     0.00000   5.34139 1.41547e-003   620  1078  -0.32   0.81   1.81   -4.09    6.87   60.06  1.100 -0.550 0 2 0 2  0.417  0.417 332.87    0.00     0.00    0.00   1   90.00     0    0    0   110 2400.0  1   1    8    0   0.000    0.000    0.000  1
 53   1    1  1 0 0    52  16    79  576  576     0.00000   5.34139 1.41547e-003   627  1090  -0.32   0.81   1.81   -4.10    6.86   59.51  1.100 -0.550 0 2 0 2  0.417  0.417 332.87    0.00     0.00    0.00   1   90.00     0    0    0   110 2400.0  1   1    8    0   0.000    0.000    0.000  1
 54   1    1  1 0 0    53  16    79  576  576     0.00000   5.34139 1.41547e-003   628  1091  -0.32   0.81   1.81   -4.11    6.86   58.96  1.100 -0.550 0 2 0 2  0.417  0.417 332.87    0.00     0.00    0.00   1   90.00     0    0    0   110 2400.0  1   1    8    0   0.000    0.000    0.000  1
 55   1    1  1 0 0    54  16    79  576  576     0.00000   5.34139 1.41547e-003   624  1085  -0.32   0.81   1.81   -4.12    6.86   58.41  1.100 -0.550 0 2 0 2  0.417  0.417 332.87    0.00     0.00    0.00   1   90.00     0    0    0   110 2400.0  1   1    8    0   0.000    0.000    0.000  1
 56   1    1  1 0 0    55  16    79  576  576     0.00000   5.34139 1.41547e-003   628  1091  -0.32   0.81   1.81   -4.12    6.85   57.86  1.100 -0.550 0 2 0 2  0.417  0.417 332.87    0.00     0.00    0.00   1   90.00     0    0    0   110 2400.0  1   1    8    0   0.000    0.000    0.000  1
 57   1    1  1 0 0    56  16    79  576  576     0.00000   5.34139 1.41547e-003   630  1094  -0.32   0.81   1.81   -4.13    6.85   57.31  1.100 -0.550 0 2 0 2  0.417  0.417 332.87    0.00     0.00    0.00   1   90.00     0    0    0   110 2400.0  1   1    8    0   0.000    0.000    0.000  1
 58   1    1  1 0 0    57  16    79  576  576     0.00000   5.34139 1.41547e-003   632  1098  -0.32   0.81   1.81   -4.14    6.85   56.76  1.100 -0.550 0 2 0 2  0.417  0.417 332.87    0.00     0.00    0.00   1   90.00     0    0    0   110 2400.0  1   1    8    0   0.000    0.000    0.000  1
 59   1    1  1 0 0    58  16    79  576  576     0.00000   5.34139 1.41547e-003   630  1095  -0.32   0.81   1.81   -4.15    6.84   56.21  1.100 -0.550 0 2 0 2  0.417  0.417 332.87    0.00     0.00    0.00   1   90.00     0    0    0   110 2400.0  1   1    8    0   0.000    0.000    0.000  1
 60   1    1  1 0 0    59  16    79  576  576     0.00000   5.34139 1.41547e-003   634  1102  -0.32   0.81   1.81   -4.16    6.84   55.66  1.100 -0.550 0 2 0 2  0.417  0.417 332.87    0.00     0.00    0.00   1   90.00     0    0    0   110 2400.0  1   1    8    0   0.000    0.000    0.000  1
 61   1    1  1 0 0    60  16    79  576  576     0.00000   5.34139 1.41547e-003   642  1116  -0.32   0.81   1.81   -4.16    6.84   55.11  1.100 -0.550 0 2 0 2  0.417  0.417 332.87    0.00     0.00    0.00   1   90.00     0    0    0   110 2400.0  1   1    8    0   0.000    0.000    0.000  1
 62   1    1  1 0 0    61  16    79  576  576     0.00000   5.34139 1.41547e-003   646  1123  -0.32   0.81   1.81   -4.17    6.83   54.56  1.100 -0.550 0 2 0 2  0.417  0.417 332.87    0.00     0.00    0.00   1   90.00     0    0    0   110 2400.0  1   1    8    0   0.000    0.000    0.000  1
 63   1    1  1 0 0    62  16    79  576  576     0.00000   5.34139 1.41547e-003   648  1127  -0.32   0.81   1.81   -4.18    6.83   54.01  1.100 -0.550 0 2 0 2  0.417  0.417 332.87    0.00     0.00    0.00   1   90.00     0    0    0   110 2400.0  1   1    8    0   0.000    0.000    0.000  1
 64   1    1  1 0 0    63  16    79  576  576     0.00000   5.34139 1.41547e-003   653  1134  -0.32   0.81   1.81   -4.19    6.83   53.46  1.100 -0.550 0 2 0 2  0.417  0.417 332.87    0.00     0.00    0.00   1   90.00     0    0    0   110 2400.0  1   1    8    0   0.000    0.000    0.000  1
 65   1    1  1 0 0    64  16    79  576  576     0.00000   5.34139 1.41547e-003   649  1128  -0.32   0.81   1.81   -4.19    6.82   52.91  1.100 -0.550 0 2 0 2  0.417  0.417 332.87    0.00     0.00    0.00   1   90.00     0    0    0   110 2400.0  1   1    8    0   0.000    0.000    0.000  1
 66   1    1  1 0 0    65  16    79  576  576     0.00000   5.34139 1.41547e-003   657  1143  -0.32   0.81   1.81   -4.20    6.82   52.37  1.100 -0.550 0 2 0 2  0.417  0.417 332.87    0.00     0.00    0.00   1   90.00     0    0    0   110 2400.0  1   1    8    0   0.000    0.000    0.000  1
 67   1    1  1 0 0    66  16    79  576  576     0.00000   5.34139 1.41547e-003   661  1149  -0.32   0.81   1.81   -4.21    6.82   51.82  1.100 -0.550 0 2 0 2  0.417  0.417 332.87    0.00     0.00    0.00   1   90.00     0    0    0   110 2400.0  1   1    8    0   0.000    0.000    0.000  1
 68   1    1  1 0 0    67  16    79  576  576     0.00000   5.34139 1.41547e-003   662  1151  -0.32   0.81   1.81   -4.22    6.81   51.27  1.100 -0.550 0 2 0 2  0.417  0.417 332.87    0.00     0.00    0.00   1   90.00     0    0    0   110 2400.0  1   1    8    0   0.000    0.000    0.000  1
 69   1    1  1 0 0    68  16    79  576  576     0.00000   5.34139 1.41547e-003   666  1158  -0.32   0.81   1.81   -4.22    6.81   50.72  1.100 -0.550 0 2 0 2  0.417  0.417 332.87    0.00     0.00    0.00   1   90.00     0    0    0   110 2400.0  1   1    8    0   0.000    0.000    0.000  1
 70   1    1  1 0 0    69  16    79  576  576     0.00000   5.34139 1.41547e-003   656  1141  -0.32   0.81   1.81   -4.23    6.81   50.17  1.100 -0.550 0 2 0 2  0.417  0.417 332.87    0.00     0.00    0.00   1   90.00     0    0    0   110 2400.0  1   1    8    0   0.000    0.000    0.000  1
 71   1    1  1 0 0    70  16    79  576  576     0.00000   5.34139 1.41547e-003   660  1147  -0.32   0.81   1.81   -4.24    6.80   49.62  1.100 -0.550 0 2 0 2  0.417  0.417 332.87    0.00     0.00    0.00   1   90.00     0    0    0   110 2400.0  1   1    8    0   0.000    0.000    0.000  1
 72   1    1  1 0 0    71  16    79  576  576     0.00000   5.34139 1.41547e-003   661  1149  -0.32   0.81   1.81   -4.25    6.80   49.07  1.100 -0.550 0 2 0 2  0.417  0.417 332.87    0.00     0.00    0.00   1   90.00     0    0    0   110 2400.0  1   1    8    0   0.000    0.000    0.000  1
 73   1    1  1 0 0    72  16    79  576  576     0.00000   5.34139 1.41547e-003   673  1169  -0.32   0.81   1.81   -4.26    6.80   48.52  1.100 -0.550 0 2 0 2  0.417  0.417 332.87    0.00     0.00    0.00   1   90.00     0    0    0   110 2400.0  1   1    8    0   0.000    0.000    0.000  1
 74   1    1  1 0 0    73  16    79  576  576     0.00000   5.34139 1.41547e-003   686  1193  -0.32   0.81   1.81   -4.26    6.79   47.97  1.100 -0.550 0 2 0 2  0.417  0.417 332.87    0.00     0.00    0.00   1   90.00     0    0    0   110 2400.0  1   1    8    0   0.000    0.000    0.000  1
 75   1    1  1 0 0    74  16    79  576  576     0.00000   5.34139 1.41547e-003   711  1236  -0.32   0.81   1.81   -4.27    6.79   47.42  1.100 -0.550 0 2 0 2  0.417  0.417 332.87    0.00     0.00    0.00   1   90.00     0    0    0   110 2400.0  1   1    8    0   0.000    0.000    0.000  1
 76   1    1  1 0 0    75  16    79  576  576     0.00000   5.34139 1.41547e-003   720  1252  -0.32   0.81   1.81   -4.28    6.79   46.87  1.100 -0.550 0 2 0 2  0.417  0.417 332.87    0.00     0.00    0.00   1   90.00     0    0    0   110 2400.0  1   1    8    0   0.000    0.000    0.000  1
 77   1    1  1 0 0    76  16    79  576  576     0.00000   5.34139 1.41547e-003   722  1255  -0.32   0.81   1.81   -4.29    6.78   46.32  1.100 -0.550 0 2 0 2  0.417  0.417 332.87    0.00     0.00    0.00   1   90.00     0    0    0   110 2400.0  1   1    8    0   0.000    0.000    0.000  1
 78   1    1  1 0 0    77  16    79  576  576     0.00000   5.34139 1.41547e-003   739  1285  -0.32   0.81   1.81   -4.29    6.78   45.77  1.100 -0.550 0 2 0 2  0.417  0.417 332.87    0.00     0.00    0.00   1   90.00     0    0    0   110 2400.0  1   1    8    0   0.000    0.000    0.000  1
 79   1    1  1 0 0    78  16    79  576  576     0.00000   5.34139 1.41547e-003   757  1315  -0.32   0.81   1.81   -4.30    6.78   45.22  1.100 -0.550 0 2 0 2  0.417  0.417 332.87    0.00     0.00    0.00   1   90.00     0    0    0   110 2400.0  1   1    8    0   0.000    0.000    0.000  1
 80   1    1  1 0 0    79  16    79  576  576     0.00000   5.34139 1.41547e-003   768  1336  -0.32   0.81   1.81   -4.31    6.77   44.67  1.100 -0.550 0 2 0 2  0.417  0.417 332.87    0.00     0.00    0.00   1   90.00     0    0    0   110 2400.0  1   1    8    0   0.000    0.000    0.000  1
 81   1    1  1 0 0    80  16    79  576  576     0.00000   5.34139 1.41547e-003   793  1378  -0.32   0.81   1.81   -4.32    6.77   44.12  1.100 -0.550 0 2 0 2  0.417  0.417 332.87    0.00     0.00    0.00   1   90.00     0    0    0   110 2400.0  1   1    8    0   0.000    0.000    0.000  1
 82   1    1  1 0 0    81  16    79  576  576     0.00000   5.34139 1.41547e-003   810  1408  -0.32   0.81   1.81   -4.32    6.77   43.57  1.100 -0.550 0 2 0 2  0.417  0.417 332.87    0.00     0.00    0.00   1   90.00     0    0    0   110 2400.0  1   1    8    0   0.000    0.000    0.000  1
 83   1    1  1 0 0    82  16    79  576  576     0.00000   5.34139 1.41547e-003   824  1432  -0.32   0.81   1.81   -4.33    6.76   43.02  1.100 -0.550 0 2 0 2  0.417  0.417 332.87    0.00     0.00    0.00   1   90.00     0    0    0   110 2400.0  1   1    8    0   0.000    0.000    0.000  1
 84   1    1  1 0 0    83  16    79  576  576     0.00000   5.34139 1.41547e-003   836  1453  -0.32   0.81   1.81   -4.34    6.76   42.47  1.100 -0.550 0 2 0 2  0.417  0.417 332.87    0.00     0.00    0.00   1   90.00     0    0    0   110 2400.0  1   1    8    0   0.000    0.000    0.000  1
