# === DATA DESCRIPTION FILE ======================================================
#
# CAUTION - Investigational device.
# Limited by Federal Law to investigational use.
#
#
# CLINICAL TRYOUT             Research image export tool     V4.2
#
# === GENERAL INFORMATION ========================================================
#
.    Protocol name                      :   WIP 3D FLAIR Sag UMich SENSE
.    Series Type                        :   Image   MRSERIES
.    Acquisition nr                     :   4
.    Reconstruction nr                  :   1
.    Scan Duration [sec]                :   528
.    Max. number of cardiac phases      :   1
.    Max. number of echoes              :   1
.    Max. number of slices/locations    :   327
.    Max. number of dynamics            :   1
.    Max. number of mixes               :   1
.    Patient position                   :   Head First Supine
.    Preparation direction              :   Anterior-Posterior
.    Technique                          :   TIR
.    Scan resolution  (x, y)            :   216  220
.    Scan mode                          :   3D
.    Repetition time [ms]               :   8000.000  
.    FOV (ap,fh,rl) [mm]                :   240.000  200.000  179.850
.    Water Fat shift [pixels]           :   0.858
.    Angulation midslice(ap,fh,rl)[degr]:   -0.042  -0.028  -0.003
.    Off Centre midslice(ap,fh,rl) [mm] :   -10.791  10.534  -3.793
.    Flow compensation <0=no 1=yes> ?   :   1
.    Presaturation     <0=no 1=yes> ?   :   0
.    Phase encoding velocity [cm/sec]   :   0.000000  0.000000  0.000000
.    MTC               <0=no 1=yes> ?   :   0
.    SPIR              <0=no 1=yes> ?   :   1
.    EPI factor        <0,1=no EPI>     :   1
.    Dynamic scan      <0=no 1=yes> ?   :   0
.    Diffusion         <0=no 1=yes> ?   :   0
.    Diffusion echo time [ms]           :   0.0000
.    Max. number of diffusion values    :   1
.    Max. number of gradient orients    :   1
.    Number of label types   <0=no ASL> :   0
#
# === PIXEL VALUES =============================================================
#  PV = pixel value in REC file, FP = floating point value, DV = displayed value on console
#  RS = rescale slope,           RI = rescale intercept,    SS = scale slope
#  DV = PV * RS + RI             FP = DV / (RS * SS)
#
# === IMAGE INFORMATION DEFINITION =============================================
#  The rest of this file contains ONE line per image, this line contains the following information:
#
#  slice number                             (integer)
#  echo number                              (integer)
#  dynamic scan number                      (integer)
#  cardiac phase number                     (integer)
#  image_type_mr                            (integer)
#  scanning sequence                        (integer)
#  index in REC file (in images)            (integer)
#  image pixel size (in bits)               (integer)
#  scan percentage                          (integer)
#  recon resolution (x y)                   (2*integer)
#  rescale intercept                        (float)
#  rescale slope                            (float)
#  scale slope                              (float)
#  window center                            (integer)
#  window width                             (integer)
#  image angulation (ap,fh,rl in degrees )  (3*float)
#  image offcentre (ap,fh,rl in mm )        (3*float)
#  slice thickness (in mm )                 (float)
#  slice gap (in mm )                       (float)
#  image_display_orientation                (integer)
#  slice orientation ( TRA/SAG/COR )        (integer)
#  fmri_status_indication                   (integer)
#  image_type_ed_es  (end diast/end syst)   (integer)
#  pixel spacing (x,y) (in mm)              (2*float)
#  echo_time                                (float)
#  dyn_scan_begin_time                      (float)
#  trigger_time                             (float)
#  diffusion_b_factor                       (float)
#  number of averages                       (integer)
#  image_flip_angle (in degrees)            (float)
#  cardiac frequency   (bpm)                (integer)
#  minimum RR-interval (in ms)              (integer)
#  maximum RR-interval (in ms)              (integer)
#  TURBO factor  <0=no turbo>               (integer)
#  Inversion delay (in ms)                  (float)
#  diffusion b value number    (imagekey!)  (integer)
#  gradient orientation number (imagekey!)  (integer)
#  contrast type                            (string)
#  diffusion anisotropy type                (string)
#  diffusion (ap, fh, rl)                   (3*float)
#  label type (ASL)            (imagekey!)  (integer)
#
# === IMAGE INFORMATION ==========================================================
#  sl ec  dyn ph ty    idx pix scan% rec size                (re)scale              window        angulation              offcentre        thick   gap   info      spacing     echo     dtime   ttime    diff  avg  flip    freq   RR-int  turbo delay b grad cont anis         diffusion       L.ty

  1   1    1  1 0 0     0  16    79  576  576     0.00000   5.63810 1.24132e-003    23    40  -0.04  -0.03  -0.00  -10.84   10.60   85.86  1.100 -0.550 0 2 0 2  0.417  0.417 331.30    0.00     0.00    0.00   1   90.00     0    0    0   110 2400.0  1   1    8    0   0.000    0.000    0.000  1
  2   1    1  1 0 0     1  16    79  576  576     0.00000   5.63810 1.24132e-003   138   240  -0.04  -0.03  -0.00  -10.83   10.60   85.31  1.100 -0.550 0 2 0 2  0.417  0.417 331.30    0.00     0.00    0.00   1   90.00     0    0    0   110 2400.0  1   1    8    0   0.000    0.000    0.000  1
  3   1    1  1 0 0     2  16    79  576  576     0.00000   5.63810 1.24132e-003   203   354  -0.04  -0.03  -0.00  -10.83   10.60   84.76  1.100 -0.550 0 2 0 2  0.417  0.417 331.30    0.00     0.00    0.00   1   90.00     0    0    0   110 2400.0  1   1    8    0   0.000    0.000    0.000  1
  4   1    1  1 0 0     3  16    79  576  576     0.00000   5.63810 1.24132e-003   249   433  -0.04  -0.03  -0.00  -10.83   10.60   84.21  1.100 -0.550 0 2 0 2  0.417  0.417 331.30    0.00     0.00    0.00   1   90.00     0    0    0   110 2400.0  1   1    8    0   0.000    0.000    0.000  1
  5   1    1  1 0 0     4  16    79  576  576     0.00000   5.63810 1.24132e-003   257   447  -0.04  -0.03  -0.00  -10.83   10.60   83.66  1.100 -0.550 0 2 0 2  0.417  0.417 331.30    0.00     0.00    0.00   1   90.00     0    0    0   110 2400.0  1   1    8    0   0.000    0.000    0.000  1
  6   1    1  1 0 0     5  16    79  576  576     0.00000   5.63810 1.24132e-003   256   445  -0.04  -0.03  -0.00  -10.83   10.60   83.11  1.100 -0.550 0 2 0 2  0.417  0.417 331.30    0.00     0.00    0.00   1   90.00     0    0    0   110 2400.0  1   1    8    0   0.000    0.000    0.000  1
  7   1    1  1 0 0     6  16    79  576  576     0.00000   5.63810 1.24132e-003   249   433  -0.04  -0.03  -0.00  -10.83   10.60   82.56  1.100 -0.550 0 2 0 2  0.417  0.417 331.30    0.00     0.00    0.00   1   90.00     0    0    0   110 2400.0  1   1    8    0   0.000    0.000    0.000  1
  8   1    1  1 0 0     7  16    79  576  576     0.00000   5.63810 1.24132e-003   261   454  -0.04  -0.03  -0.00  -10.83   10.60   82.01  1.100 -0.550 0 2 0 2  0.417  0.417 331.30    0.00     0.00    0.00   1   90.00     0    0    0   110 2400.0  1   1    8    0   0.000    0.000    0.000  1
  9   1    1  1 0 0     8  16    79  576  576     0.00000   5.63810 1.24132e-003   260   452  -0.04  -0.03  -0.00  -10.83   10.60   81.46  1.100 -0.550 0 2 0 2  0.417  0.417 331.30    0.00     0.00    0.00   1   90.00     0    0    0   110 2400.0  1   1    8    0   0.000    0.000    0.000  1
 10   1    1  1 0 0     9  16    79  576  576     0.00000   5.63810 1.24132e-003   264   458  -0.04  -0.03  -0.00  -10.83   10.60   80.91  1.100 -0.550 0 2 0 2  0.417  0.417 331.30    0.00     0.00    0.00   1   90.00     0    0    0   110 2400.0  1   1    8    0   0.000    0.000    0.000  1
 11   1    1  1 0 0    10  16    79  576  576     0.00000   5.63810 1.24132e-003   258   449  -0.04  -0.03  -0.00  -10.83   10.60   80.36  1.100 -0.550 0 2 0 2  0.417  0.417 331.30    0.00     0.00    0.00   1   90.00     0    0    0   110 2400.0  1   1    8    0   0.000    0.000    0.000  1
 12   1    1  1 0 0    11  16    79  576  576     0.00000   5.63810 1.24132e-003   266   463  -0.04  -0.03  -0.00  -10.83   10.60   79.81  1.100 -0.550 0 2 0 2  0.417  0.417 331.30    0.00     0.00    0.00   1   90.00     0    0    0   110 2400.0  1   1    8    0   0.000    0.000    0.000  1
 13   1    1  1 0 0    12  16    79  576  576     0.00000   5.63810 1.24132e-003   266   463  -0.04  -0.03  -0.00  -10.83   10.59   79.26  1.100 -0.550 0 2 0 2  0.417  0.417 331.30    0.00     0.00    0.00   1   90.00     0    0    0   110 2400.0  1   1    8    0   0.000    0.000    0.000  1
 14   1    1  1 0 0    13  16    79  576  576     0.00000   5.63810 1.24132e-003   270   469  -0.04  -0.03  -0.00  -10.83   10.59   78.71  1.100 -0.550 0 2 0 2  0.417  0.417 331.30    0.00     0.00    0.00   1   90.00     0    0    0   110 2400.0  1   1    8    0   0.000    0.000    0.000  1
 15   1    1  1 0 0    14  16    79  576  576     0.00000   5.63810 1.24132e-003   273   475  -0.04  -0.03  -0.00  -10.83   10.59   78.16  1.100 -0.550 0 2 0 2  0.417  0.417 331.30    0.00     0.00    0.00   1   90.00     0    0    0   110 2400.0  1   1    8    0   0.000    0.000    0.000  1
 16   1    1  1 0 0    15  16    79  576  576     0.00000   5.63810 1.24132e-003   284   494  -0.04  -0.03  -0.00  -10.83   10.59   77.61  1.100 -0.550 0 2 0 2  0.417  0.417 331.30    0.00     0.00    0.00   1   90.00     0    0    0   110 2400.0  1   1    8    0   0.000    0.000    0.000  1
 17   1    1  1 0 0    16  16    79  576  576     0.00000   5.63810 1.24132e-003   303   526  -0.04  -0.03  -0.00  -10.83   10.59   77.06  1.100 -0.550 0 2 0 2  0.417  0.417 331.30    0.00     0.00    0.00   1   90.00     0    0    0   110 2400.0  1   1    8    0   0.000    0.000    0.000  1
 18   1    1  1 0 0    17  16    79  576  576     0.00000   5.63810 1.24132e-003   326   568  -0.04  -0.03  -0.00  -10.83   10.59   76.51  1.100 -0.550 0 2 0 2  0.417  0.417 331.30    0.00     0.00    0.00   1   90.00     0    0    0   110 2400.0  1   1    8    0   0.000    0.000    0.000  1
 19   1    1  1 0 0    18  16    79  576  576     0.00000   5.63810 1.24132e-003   344   598  -0.04  -0.03  -0.00  -10.83   10.59   75.96  1.100 -0.550 0 2 0 2  0.417  0.417 331.30    0.00     0.00    0.00   1   90.00     0    0    0   110 2400.0  1   1    8    0   0.000    0.000    0.000  1
 20   1    1  1 0 0    19  16    79  576  576     0.00000   5.63810 1.24132e-003   365   634  -0.04  -0.03  -0.00  -10.83   10.59   75.41  1.100 -0.550 0 2 0 2  0.417  0.417 331.30    0.00     0.00    0.00   1   90.00     0    0    0   110 2400.0  1   1    8    0   0.000    0.000    0.000  1
 21   1    1  1 0 0    20  16    79  576  576     0.00000   5.63810 1.24132e-003   381   663  -0.04  -0.03  -0.00  -10.83   10.59   74.86  1.100 -0.550 0 2 0 2  0.417  0.417 331.30    0.00     0.00    0.00   1   90.00     0    0    0   110 2400.0  1   1    8    0   0.000    0.000    0.000  1
 22   1    1  1 0 0    21  16    79  576  576     0.00000   5.63810 1.24132e-003   410   713  -0.04  -0.03  -0.00  -10.83   10.59   74.31  1.100 -0.550 0 2 0 2  0.417  0.417 331.30    0.00     0.00    0.00   1   90.00     0    0    0   110 2400.0  1   1    8    0   0.000    0.000    0.000  1
 23   1    1  1 0 0    22  16    79  576  576     0.00000   5.63810 1.24132e-003   454   789  -0.04  -0.03  -0.00  -10.83   10.59   73.76  1.100 -0.550 0 2 0 2  0.417  0.417 331.30    0.00     0.00    0.00   1   90.00     0    0    0   110 2400.0  1   1    8    0   0.000    0.000    0.000  1
 24   1    1  1 0 0    23  16    79  576  576     0.00000   5.63810 1.24132e-003   497   864  -0.04  -0.03  -0.00  -10.83   10.59   73.21  1.100 -0.550 0 2 0 2  0.417  0.417 331.30    0.00     0.00    0.00   1   90.00     0    0    0   110 2400.0  1   1    8    0   0.000    0.000    0.000  1
 25   1    1  1 0 0    24  16    79  576  576     0.00000   5.63810 1.24132e-003   524   912  -0.04  -0.03  -0.00  -10.83   10.59   72.66  1.100 -0.550 0 2 0 2  0.417  0.417 331.30    0.00     0.00    0.00   1   90.00     0    0    0   110 2400.0  1   1    8    0   0.000    0.000    0.000  1
 26   1    1  1 0 0    25  16    79  576  576     0.00000   5.63810 1.24132e-003   551   958  -0.04  -0.03  -0.00  -10.83   10.59   72.11  1.100 -0.550 0 2 0 2  0.417  0.417 331.30    0.00     0.00    0.00   1   90.00     0    0    0   110 2400.0  1   1    8    0   0.000    0.000    0.000  1
 27   1    1  1 0 0    26  16    79  576  576     0.00000   5.63810 1.24132e-003   568   987  -0.04  -0.03  -0.00  -10.83   10.59   71.56  1.100 -0.550 0 2 0 2  0.417  0.417 331.30    0.00     0.00    0.00   1   90.00     0    0    0   110 2400.0  1   1    8    0   0.000    0.000    0.000  1
 28   1    1  1 0 0    27  16    79  576  576     0.00000   5.63810 1.24132e-003   595  1035  -0.04  -0.03  -0.00  -10.83   10.59   71.01  1.100 -0.550 0 2 0 2  0.417  0.417 331.30    0.00     0.00    0.00   1   90.00     0    0    0   110 2400.0  1   1    8    0   0.000    0.000    0.000  1
 29   1    1  1 0 0    28  16    79  576  576     0.00000   5.63810 1.24132e-003   597  1039  -0.04  -0.03  -0.00  -10.83   10.59   70.46  1.100 -0.550 0 2 0 2  0.417  0.417 331.30    0.00     0.00    0.00   1   90.00     0    0    0   110 2400.0  1   1    8    0   0.000    0.000    0.000  1
 30   1    1  1 0 0    29  16    79  576  576     0.00000   5.63810 1.24132e-003   597  1038  -0.04  -0.03  -0.00  -10.83   10.59   69.91  1.100 -0.550 0 2 0 2  0.417  0.417 331.30    0.00     0.00    0.00   1   90.00     0    0    0   110 2400.0  1   1    8    0   0.000    0.000    0.000  1
 31   1    1  1 0 0    30  16    79  576  576     0.00000   5.63810 1.24132e-003   609  1059  -0.04  -0.03  -0.00  -10.83   10.59   69.36  1.100 -0.550 0 2 0 2  0.417  0.417 331.30    0.00     0.00    0.00   1   90.00     0    0    0   110 2400.0  1   1    8    0   0.000    0.000    0.000  1
 32   1    1  1 0 0    31  16    79  576  576     0.00000   5.63810 1.24132e-003   650  1130  -0.04  -0.03  -0.00  -10.83   10.59   68.81  1.100 -0.550 0 2 0 2  0.417  0.417 331.30    0.00     0.00    0.00   1   90.00     0    0    0   110 2400.0  1   1    8    0   0.000    0.000    0.000  1
 33   1    1  1 0 0    32  16    79  576  576     0.00000   5.63810 1.24132e-003   695  1208  -0.04  -0.03  -0.00  -10.83   10.59   68.26  1.100 -0.550 0 2 0 2  0.417  0.417 331.30    0.00     0.00    0.00   1   90.00     0    0    0   110 2400.0  1   1    8    0   0.000    0.000    0.000  1
 34   1    1  1 0 0    33  16    79  576  576     0.00000   5.63810 1.24132e-003   713  1240  -0.04  -0.03  -0.00  -10.83   10.59   67.71  1.100 -0.550 0 2 0 2  0.417  0.417 331.30    0.00     0.00    0.00   1   90.00     0    0    0   110 2400.0  1   1    8    0   0.000    0.000    0.000  1
 35   1    1  1 0 0    34  16    79  576  576     0.00000   5.63810 1.24132e-003   727  1264  -0.04  -0.03  -0.00  -10.83   10.59   67.16  1.100 -0.550 0 2 0 2  0.417  0.417 331.30    0.00     0.00    0.00   1   90.00     0    0    0   110 2400.0  1   1    8    0   0.000    0.000    0.000  1
 36   1    1  1 0 0    35  16    79  576  576     0.00000   5.63810 1.24132e-003   749  1302  -0.04  -0.03  -0.00  -10.83   10.59   66.61  1.100 -0.550 0 2 0 2  0.417  0.417 331.30    0.00     0.00    0.00   1   90.00     0    0    0   110 2400.0  1   1    8    0   0.000    0.000    0.000  1
 37   1    1  1 0 0    36  16    79  576  576     0.00000   5.63810 1.24132e-003   765  1331  -0.04  -0.03  -0.00  -10.83   10.59   66.06  1.100 -0.550 0 2 0 2  0.417  0.417 331.30    0.00     0.00    0.00   1   90.00     0    0    0   110 2400.0  1   1    8    0   0.000    0.000    0.000  1
 38   1    1  1 0 0    37  16    79  576  576     0.00000   5.63810 1.24132e-003   774  1346  -0.04  -0.03  -0.00  -10.83   10.58   65.51  1.100 -0.550 0 2 0 2  0.417  0.417 331.30    0.00     0.00    0.00   1   90.00     0    0    0   110 2400.0  1   1    8    0   0.000    0.000    0.000  1
 39   1    1  1 0 0    38  16    79  576  576     0.00000   5.63810 1.24132e-003   779  1355  -0.04  -0.03  -0.00  -10.82   10.58   64.96  1.100 -0.550 0 2 0 2  0.417  0.417 331.30    0.00     0.00    0.00   1   90.00     0    0    0   110 2400.0  1   1    8    0   0.000    0.000    0.000  1
 40   1    1  1 0 0    39  16    79  576  576     0.00000   5.63810 1.24132e-003   788  1370  -0.04  -0.03  -0.00  -10.82   10.58   64.41  1.100 -0.550 0 2 0 2  0.417  0.417 331.30    0.00     0.00    0.00   1   90.00     0    0    0   110 2400.0  1   1    8    0   0.000    0.000    0.000  1
 41   1    1  1 0 0    40  16    79  576  576     0.00000   5.63810 1.24132e-003   808  1404  -0.04  -0.03  -0.00  -10.82   10.58   63.86  1.100 -0.550 0 2 0 2  0.417  0.417 331.30    0.00     0.00    0.00   1   90.00     0    0    0   110 2400.0  1   1    8    0   0.000    0.000    0.000  1
 42   1    1  1 0 0    41  16    79  576  576     0.00000   5.63810 1.24132e-003   840  1460  -0.04  -0.03  -0.00  -10.82   10.58   63.31  1.100 -0.550 0 2 0 2  0.417  0.417 331.30    0.00     0.00    0.00   1   90.00     0    0    0   110 2400.0  1   1    8    0   0.000    0.000    0.000  1
 43   1    1  1 0 0    42  16    79  576  576     0.00000   5.63810 1.24132e-003   860  1495  -0.04  -0.03  -0.00  -10.82   10.58   62.76  1.100 -0.550 0 2 0 2  0.417  0.417 331.30    0.00     0.00    0.00   1   90.00     0    0    0   110 2400.0  1   1    8    0   0.000    0.000    0.000  1
 44   1    1  1 0 0    43  16    79  576  576     0.00000   5.63810 1.24132e-003   880  1530  -0.04  -0.03  -0.00  -10.82   10.58   62.21  1.100 -0.550 0 2 0 2  0.417  0.417 331.30    0.00     0.00    0.00   1   90.00     0    0    0   110 2400.0  1   1    8    0   0.000    0.000    0.000  1
 45   1    1  1 0 0    44  16    79  576  576     0.00000   5.63810 1.24132e-003   894  1554  -0.04  -0.03  -0.00  -10.82   10.58   61.66  1.100 -0.550 0 2 0 2  0.417  0.417 331.30    0.00     0.00    0.00   1   90.00     0    0    0   110 2400.0  1   1    8    0   0.000    0.000    0.000  1
 46   1    1  1 0 0    45  16    79  576  576     0.00000   5.63810 1.24132e-003   907  1576  -0.04  -0.03  -0.00  -10.82   10.58   61.11  1.100 -0.550 0 2 0 2  0.417  0.417 331.30    0.00     0.00    0.00   1   90.00     0    0    0   110 2400.0  1   1    8    0   0.000    0.000    0.000  1
 47   1    1  1 0 0    46  16    79  576  576     0.00000   5.63810 1.24132e-003   917  1594  -0.04  -0.03  -0.00  -10.82   10.58   60.56  1.100 -0.550 0 2 0 2  0.417  0.417 331.30    0.00     0.00    0.00   1   90.00     0    0    0   110 2400.0  1   1    8    0   0.000    0.000    0.000  1
 48   1    1  1 0 0    47  16    79  576  576     0.00000   5.63810 1.24132e-003   919  1597  -0.04  -0.03  -0.00  -10.82   10.58   60.01  1.100 -0.550 0 2 0 2  0.417  0.417 331.30    0.00     0.00    0.00   1   90.00     0    0    0   110 2400.0  1   1    8    0   0.000    0.000    0.000  1
 49   1    1  1 0 0    48  16    79  576  576     0.00000   5.63810 1.24132e-003   928  1614  -0.04  -0.03  -0.00  -10.82   10.58   59.46  1.100 -0.550 0 2 0 2  0.417  0.417 331.30    0.00     0.00    0.00   1   90.00     0    0    0   110 2400.0  1   1    8    0   0.000    0.000    0.000  1
 50   1    1  1 0 0    49  16    79  576  576     0.00000   5.63810 1.24132e-003   935  1625  -0.04  -0.03  -0.00  -10.82   10.58   58.91  1.100 -0.550 0 2 0 2  0.417  0.417 331.30    0.00     0.00    0.00   1   90.00     0    0    0   110 2400.0  1   1    8    0   0.000    0.000    0.000  1
 51   1    1  1 0 0    50  16    79  576  576     0.00000   5.63810 1.24132e-003   937  1628  -0.04  -0.03  -0.00  -10.82   10.58   58.36  1.100 -0.550 0 2 0 2  0.417  0.417 331.30    0.00     0.00    0.00   1   90.00     0    0    0   110 2400.0  1   1    8    0   0.000    0.000    0.000  1
 52   1    1  1 0 0    51  16    79  576  576     0.00000   5.63810 1.24132e-003   934  1624  -0.04  -0.03  -0.00  -10.82   10.58   57.81  1.100 -0.550 0 2 0 2  0.417  0.417 331.30    0.00     0.00    0.00   1   90.00     0    0    0   110 2400.0  1   1    8    0   0.000    0.000    0.000  1
 53   1    1  1 0 0    52  16    79  576  576     0.00000   5.63810 1.24132e-003   948  1647  -0.04  -0.03  -0.00  -10.82   10.58   57.26  1.100 -0.550 0 2 0 2  0.417  0.417 331.30    0.00     0.00    0.00   1   90.00     0    0    0   110 2400.0  1   1    8    0   0.000    0.000    0.000  1
 54   1    1  1 0 0    53  16    79  576  576     0.00000   5.63810 1.24132e-003   965  1677  -0.04  -0.03  -0.00  -10.82   10.58   56.71  1.100 -0.550 0 2 0 2  0.417  0.417 331.30    0.00     0.00    0.00   1   90.00     0    0    0   110 2400.0  1   1    8    0   0.000    0.000    0.000  1
 55   1    1  1 0 0    54  16    79  576  576     0.00000   5.63810 1.24132e-003   960  1668  -0.04  -0.03  -0.00  -10.82   10.58   56.16  1.100 -0.550 0 2 0 2  0.417  0.417 331.30    0.00     0.00    0.00   1   90.00     0    0    0   110 2400.0  1   1    8    0   0.000    0.000    0.000  1
 56   1    1  1 0 0    55  16    79  576  576     0.00000   5.63810 1.24132e-003   957  1663  -0.04  -0.03  -0.00  -10.82   10.58   55.61  1.100 -0.550 0 2 0 2  0.417  0.417 331.30    0.00     0.00    0.00   1   90.00     0    0    0   110 2400.0  1   1    8    0   0.000    0.000    0.000  1
 57   1    1  1 0 0    56  16    79  576  576     0.00000   5.63810 1.24132e-003   954  1659  -0.04  -0.03  -0.00  -10.82   10.58   55.06  1.100 -0.550 0 2 0 2  0.417  0.417 331.30    0.00     0.00    0.00   1   90.00     0    0    0   110 2400.0  1   1    8    0   0.000    0.000    0.000  1
 58   1    1  1 0 0    57  16    79  576  576     0.00000   5.63810 1.24132e-003   968  1683  -0.04  -0.03  -0.00  -10.82   10.58   54.51  1.100 -0.550 0 2 0 2  0.417  0.417 331.30    0.00     0.00    0.00   1   90.00     0    0    0   110 2400.0  1   1    8    0   0.000    0.000    0.000  1
 59   1    1  1 0 0    58  16    79  576  576     0.00000   5.63810 1.24132e-003   978  1700  -0.04  -0.03  -0.00  -10.82   10.58   53.96  1.100 -0.550 0 2 0 2  0.417  0.417 331.30    0.00     0.00    0.00   1   90.00     0    0    0   110 2400.0  1   1    8    0   0.000    0.000    0.000  1
 60   1    1  1 0 0    59  16    79  576  576     0.00000   5.63810 1.24132e-003   986  1715  -0.04  -0.03  -0.00  -10.82   10.58   53.41  1.100 -0.550 0 2 0 2  0.417  0.417 331.30    0.00     0.00    0.00   1   90.00     0    0    0   110 2400.0  1   1    8    0   0.000    0.000    0.000  1
 61   1    1  1 0 0    60  16    79  576  576     0.00000   5.63810 1.24132e-003   994  1727  -0.04  -0.03  -0.00  -10.82   10.58   52.86  1.100 -0.550 0 2 0 2  0.417  0.417 331.30    0.00     0.00    0.00   1   90.00     0    0    0   110 2400.0  1   1    8    0   0.000    0.000    0.000  1
 62   1    1  1 0 0    61  16    79  576  576     0.00000   5.63810 1.24132e-003  1005  1747  -0.04  -0.03  -0.00  -10.82   10.58   52.31  1.100 -0.550 0 2 0 2  0.417  0.417 331.30    0.00     0.00    0.00   1   90.00     0    0    0   110 2400.0  1   1    8    0   0.000    0.000    0.000  1
 63   1    1  1 0 0    62  16    79  576  576     0.00000   5.63810 1.24132e-003  1016  1767  -0.04  -0.03  -0.00  -10.82   10.57   51.76  1.100 -0.550 0 2 0 2  0.417  0.417 331.30    0.00     0.00    0.00   1   90.00     0    0    0   110 2400.0  1   1    8    0   0.000    0.000    0.000  1
 64   1    1  1 0 0    63  16    79  576  576     0.00000   5.63810 1.24132e-003  1022  1776  -0.04  -0.03  -0.00  -10.82   10.57   51.21  1.100 -0.550 0 2 0 2  0.417  0.417 331.30    0.00     0.00    0.00   1   90.00     0    0    0   110 2400.0  1   1    8    0   0.000    0.000    0.000  1
 65   1    1  1 0 0    64  16    79  576  576     0.00000   5.63810 1.24132e-003  1026  1783  -0.04  -0.03  -0.00  -10.82   10.57   50.66  1.100 -0.550 0 2 0 2  0.417  0.417 331.30    0.00     0.00    0.00   1   90.00     0    0    0   110 2400.0  1   1    8    0   0.000    0.000    0.000  1
 66   1    1  1 0 0    65  16    79  576  576     0.00000   5.63810 1.24132e-003  1036  1801  -0.04  -0.03  -0.00  -10.82   10.57   50.11  1.100 -0.550 0 2 0 2  0.417  0.417 331.30    0.00     0.00    0.00   1   90.00     0    0    0   110 2400.0  1   1    8    0   0.000    0.000    0.000  1
 67   1    1  1 0 0    66  16    79  576  576     0.00000   5.63810 1.24132e-003  1053  1830  -0.04  -0.03  -0.00  -10.82   10.57   49.56  1.100 -0.550 0 2 0 2  0.417  0.417 331.30    0.00     0.00    0.00   1   90.00     0    0    0   110 2400.0  1   1    8    0   0.000    0.000    0.000  1
 68   1    1  1 0 0    67  16    79  576  576     0.00000   5.63810 1.24132e-003  1063  1848  -0.04  -0.03  -0.00  -10.82   10.57   49.01  1.100 -0.550 0 2 0 2  0.417  0.417 331.30    0.00     0.00    0.00   1   90.00     0    0    0   110 2400.0  1   1    8    0   0.000    0.000    0.000  1
 69   1    1  1 0 0    68  16    79  576  576     0.00000   5.63810 1.24132e-003  1062  1845  -0.04  -0.03  -0.00  -10.82   10.57   48.46  1.100 -0.550 0 2 0 2  0.417  0.417 331.30    0.00     0.00    0.00   1   90.00     0    0    0   110 2400.0  1   1    8    0   0.000    0.000    0.000  1
 70   1    1  1 0 0    69  16    79  576  576     0.00000   5.63810 1.24132e-003  1070  1860  -0.04  -0.03  -0.00  -10.82   10.57   47.91  1.100 -0.550 0 2 0 2  0.417  0.417 331.30    0.00     0.00    0.00   1   90.00     0    0    0   110 2400.0  1   1    8    0   0.000    0.000    0.000  1
 71   1    1  1 0 0    70  16    79  576  576     0.00000   5.63810 1.24132e-003  1078  1873  -0.04  -0.03  -0.00  -10.82   10.57   47.36  1.100 -0.550 0 2 0 2  0.417  0.417 331.30    0.00     0.00    0.00   1   90.00     0    0    0   110 2400.0  1   1    8    0   0.000    0.000    0.000  1
 72   1    1  1 0 0    71  16    79  576  576     0.00000   5.63810 1.24132e-003  1093  1899  -0.04  -0.03  -0.00  -10.82   10.57   46.81  1.100 -0.550 0 2 0 2  0.417  0.417 331.30    0.00     0.00    0.00   1   90.00     0    0    0   110 2400.0  1   1    8    0   0.000    0.000    0.000  1
 73   1    1  1 0 0    72  16    79  576  576     0.00000   5.63810 1.24132e-003  1106  1922  -0.04  -0.03  -0.00  -10.82   10.57   46.26  1.100 -0.550 0 2 0 2  0.417  0.417 331.30    0.00     0.00    0.00   1   90.00     0    0    0   110 2400.0  1   1    8    0   0.000    0.000    0.000  1
 74   1    1  1 0 0    73  16    79  576  576     0.00000   5.63810 1.24132e-003  1098  1909  -0.04  -0.03  -0.00  -10.82   10.57   45.71  1.100 -0.550 0 2 0 2  0.417  0.417 331.30    0.00     0.00    0.00   1   90.00     0    0    0   110 2400.0  1   1    8    0   0.000    0.000    0.000  1
 75   1    1  1 0 0    74  16    79  576  576     0.00000   5.63810 1.24132e-003  1108  1925  -0.04  -0.03  -0.00  -10.82   10.57   45.16  1.100 -0.550 0 2 0 2  0.417  0.417 331.30    0.00     0.00    0.00   1   90.00     0    0    0   110 2400.0  1   1    8    0   0.000    0.000    0.000  1
 76   1    1  1 0 0    75  16    79  576  576     0.00000   5.63810 1.24132e-003  1125  1956  -0.04  -0.03  -0.00  -10.81   10.57   44.61  1.100 -0.550 0 2 0 2  0.417  0.417 331.30    0.00     0.00    0.00   1   90.00     0    0    0   110 2400.0  1   1    8    0   0.000    0.000    0.000  1
 77   1    1  1 0 0    76  16    79  576  576     0.00000   5.63810 1.24132e-003  1148  1996  -0.04  -0.03  -0.00  -10.81   10.57   44.06  1.100 -0.550 0 2 0 2  0.417  0.417 331.30    0.00     0.00    0.00   1   90.00     0    0    0   110 2400.0  1   1    8    0   0.000    0.000    0.000  1
 78   1    1  1 0 0    77  16    79  576  576     0.00000   5.63810 1.24132e-003  1158  2012  -0.04  -0.03  -0.00  -10.81   10.57   43.51  1.100 -0.550 0 2 0 2  0.417  0.417 331.30    0.00     0.00    0.00   1   90.00     0    0    0   110 2400.0  1   1    8    0   0.000    0.000    0.000  1
 79   1    1  1 0 0    78  16    79  576  576     0.00000   5.63810 1.24132e-003  1160  2017  -0.04  -0.03  -0.00  -10.81   10.57   42.96  1.100 -0.550 0 2 0 2  0.417  0.417 331.30    0.00     0.00    0.00   1   90.00     0    0    0   110 2400.0  1   1    8    0   0.000    0.000    0.000  1
 80   1    1  1 0 0    79  16    79  576  576     0.00000   5.63810 1.24132e-003  1177  2047  -0.04  -0.03  -0.00  -10.81   10.57   42.41  1.100 -0.550 0 2 0 2  0.417  0.417 331.30    0.00     0.00    0.00   1   90.00     0    0    0   110 2400.0  1   1    8    0   0.000    0.000    0.000  1
 81   1    1  1 0 0    80  16    79  576  576     0.00000   5.63810 1.24132e-003  1178  2048  -0.04  -0.03  -0.00  -10.81   10.57   41.86  1.100 -0.550 0 2 0 2  0.417  0.417 331.30    0.00     0.00    0.00   1   90.00     0    0    0   110 2400.0  1   1    8    0   0.000    0.000    0.000  1
 82   1    1  1 0 0    81  16    79  576  576     0.00000   5.63810 1.24132e-003  1187  2064  -0.04  -0.03  -0.00  -10.81   10.57   41.31  1.100 -0.550 0 2 0 2  0.417  0.417 331.30    0.00     0.00    0.00   1   90.00     0    0    0   110 2400.0  1   1    8    0   0.000    0.000    0.000  1
 83   1    1  1 0 0    82  16    79  576  576     0.00000   5.63810 1.24132e-003  1215  2112  -0.04  -0.03  -0.00  -10.81   10.57   40.76  1.100 -0.550 0 2 0 2  0.417  0.417 331.30    0.00     0.00    0.00   1   90.00     0    0    0   110 2400.0  1   1    8    0   0.000    0.000    0.000  1
 84   1    1  1 0 0    83  16    79  576  576     0.00000   5.63810 1.24132e-003  1267  2203  -0.04  -0.03  -0.00  -10.81   10.57   40.21  1.100 -0.550 0 2 0 2  0.417  0.417 331.30    0.00     0.00    0.00   1   90.00     0    0    0   110 2400.0  1   1    8    0   0.000    0.000    0.000  1
