# === DATA DESCRIPTION FILE ======================================================
#
# CAUTION - Investigational device.
# Limited by Federal Law to investigational use.
#
#
# CLINICAL TRYOUT             Research image export tool     V4.2
#
# === GENERAL INFORMATION ========================================================
#
.    Protocol name                      :   WIP 3D FLAIR Sag UMich SENSE
.    Series Type                        :   Image   MRSERIES
.    Acquisition nr                     :   4
.    Reconstruction nr                  :   1
.    Scan Duration [sec]                :   528
.    Max. number of cardiac phases      :   1
.    Max. number of echoes              :   1
.    Max. number of slices/locations    :   327
.    Max. number of dynamics            :   1
.    Max. number of mixes               :   1
.    Patient position                   :   Head First Supine
.    Preparation direction              :   Anterior-Posterior
.    Technique                          :   TIR
.    Scan resolution  (x, y)            :   216  220
.    Scan mode                          :   3D
.    Repetition time [ms]               :   8000.000  
.    FOV (ap,fh,rl) [mm]                :   240.000  200.000  179.850
.    Water Fat shift [pixels]           :   0.849
.    Angulation midslice(ap,fh,rl)[degr]:   -5.928  4.009  -0.000
.    Off Centre midslice(ap,fh,rl) [mm] :   -10.790  11.761  -0.926
.    Flow compensation <0=no 1=yes> ?   :   1
.    Presaturation     <0=no 1=yes> ?   :   0
.    Phase encoding velocity [cm/sec]   :   0.000000  0.000000  0.000000
.    MTC               <0=no 1=yes> ?   :   0
.    SPIR              <0=no 1=yes> ?   :   1
.    EPI factor        <0,1=no EPI>     :   1
.    Dynamic scan      <0=no 1=yes> ?   :   0
.    Diffusion         <0=no 1=yes> ?   :   0
.    Diffusion echo time [ms]           :   0.0000
.    Max. number of diffusion values    :   1
.    Max. number of gradient orients    :   1
.    Number of label types   <0=no ASL> :   0
#
# === PIXEL VALUES =============================================================
#  PV = pixel value in REC file, FP = floating point value, DV = displayed value on console
#  RS = rescale slope,           RI = rescale intercept,    SS = scale slope
#  DV = PV * RS + RI             FP = DV / (RS * SS)
#
# === IMAGE INFORMATION DEFINITION =============================================
#  The rest of this file contains ONE line per image, this line contains the following information:
#
#  slice number                             (integer)
#  echo number                              (integer)
#  dynamic scan number                      (integer)
#  cardiac phase number                     (integer)
#  image_type_mr                            (integer)
#  scanning sequence                        (integer)
#  index in REC file (in images)            (integer)
#  image pixel size (in bits)               (integer)
#  scan percentage                          (integer)
#  recon resolution (x y)                   (2*integer)
#  rescale intercept                        (float)
#  rescale slope                            (float)
#  scale slope                              (float)
#  window center                            (integer)
#  window width                             (integer)
#  image angulation (ap,fh,rl in degrees )  (3*float)
#  image offcentre (ap,fh,rl in mm )        (3*float)
#  slice thickness (in mm )                 (float)
#  slice gap (in mm )                       (float)
#  image_display_orientation                (integer)
#  slice orientation ( TRA/SAG/COR )        (integer)
#  fmri_status_indication                   (integer)
#  image_type_ed_es  (end diast/end syst)   (integer)
#  pixel spacing (x,y) (in mm)              (2*float)
#  echo_time                                (float)
#  dyn_scan_begin_time                      (float)
#  trigger_time                             (float)
#  diffusion_b_factor                       (float)
#  number of averages                       (integer)
#  image_flip_angle (in degrees)            (float)
#  cardiac frequency   (bpm)                (integer)
#  minimum RR-interval (in ms)              (integer)
#  maximum RR-interval (in ms)              (integer)
#  TURBO factor  <0=no turbo>               (integer)
#  Inversion delay (in ms)                  (float)
#  diffusion b value number    (imagekey!)  (integer)
#  gradient orientation number (imagekey!)  (integer)
#  contrast type                            (string)
#  diffusion anisotropy type                (string)
#  diffusion (ap, fh, rl)                   (3*float)
#  label type (ASL)            (imagekey!)  (integer)
#
# === IMAGE INFORMATION ==========================================================
#  sl ec  dyn ph ty    idx pix scan% rec size                (re)scale              window        angulation              offcentre        thick   gap   info      spacing     echo     dtime   ttime    diff  avg  flip    freq   RR-int  turbo delay b grad cont anis         diffusion       L.ty

  1   1    1  1 0 0     0  16    79  576  576     0.00000   5.87473 1.09799e-003    12    21  -5.93   4.01  -0.00   -4.52   21.00   88.03  1.100 -0.550 0 2 0 2  0.417  0.417 330.16    0.00     0.00    0.00   1   90.00     0    0    0   110 2400.0  1   1    8    0   0.000    0.000    0.000  1
  2   1    1  1 0 0     1  16    79  576  576     0.00000   5.87473 1.09799e-003    20    36  -5.93   4.01  -0.00   -4.56   20.94   87.48  1.100 -0.550 0 2 0 2  0.417  0.417 330.16    0.00     0.00    0.00   1   90.00     0    0    0   110 2400.0  1   1    8    0   0.000    0.000    0.000  1
  3   1    1  1 0 0     2  16    79  576  576     0.00000   5.87473 1.09799e-003    20    36  -5.93   4.01  -0.00   -4.60   20.88   86.93  1.100 -0.550 0 2 0 2  0.417  0.417 330.16    0.00     0.00    0.00   1   90.00     0    0    0   110 2400.0  1   1    8    0   0.000    0.000    0.000  1
  4   1    1  1 0 0     3  16    79  576  576     0.00000   5.87473 1.09799e-003    27    47  -5.93   4.01  -0.00   -4.64   20.83   86.39  1.100 -0.550 0 2 0 2  0.417  0.417 330.16    0.00     0.00    0.00   1   90.00     0    0    0   110 2400.0  1   1    8    0   0.000    0.000    0.000  1
  5   1    1  1 0 0     4  16    79  576  576     0.00000   5.87473 1.09799e-003    27    46  -5.93   4.01  -0.00   -4.68   20.77   85.84  1.100 -0.550 0 2 0 2  0.417  0.417 330.16    0.00     0.00    0.00   1   90.00     0    0    0   110 2400.0  1   1    8    0   0.000    0.000    0.000  1
  6   1    1  1 0 0     5  16    79  576  576     0.00000   5.87473 1.09799e-003    23    41  -5.93   4.01  -0.00   -4.71   20.71   85.30  1.100 -0.550 0 2 0 2  0.417  0.417 330.16    0.00     0.00    0.00   1   90.00     0    0    0   110 2400.0  1   1    8    0   0.000    0.000    0.000  1
  7   1    1  1 0 0     6  16    79  576  576     0.00000   5.87473 1.09799e-003    24    42  -5.93   4.01  -0.00   -4.75   20.66   84.75  1.100 -0.550 0 2 0 2  0.417  0.417 330.16    0.00     0.00    0.00   1   90.00     0    0    0   110 2400.0  1   1    8    0   0.000    0.000    0.000  1
  8   1    1  1 0 0     7  16    79  576  576     0.00000   5.87473 1.09799e-003    24    42  -5.93   4.01  -0.00   -4.79   20.60   84.21  1.100 -0.550 0 2 0 2  0.417  0.417 330.16    0.00     0.00    0.00   1   90.00     0    0    0   110 2400.0  1   1    8    0   0.000    0.000    0.000  1
  9   1    1  1 0 0     8  16    79  576  576     0.00000   5.87473 1.09799e-003    27    46  -5.93   4.01  -0.00   -4.83   20.54   83.66  1.100 -0.550 0 2 0 2  0.417  0.417 330.16    0.00     0.00    0.00   1   90.00     0    0    0   110 2400.0  1   1    8    0   0.000    0.000    0.000  1
 10   1    1  1 0 0     9  16    79  576  576     0.00000   5.87473 1.09799e-003    28    48  -5.93   4.01  -0.00   -4.87   20.49   83.11  1.100 -0.550 0 2 0 2  0.417  0.417 330.16    0.00     0.00    0.00   1   90.00     0    0    0   110 2400.0  1   1    8    0   0.000    0.000    0.000  1
 11   1    1  1 0 0    10  16    79  576  576     0.00000   5.87473 1.09799e-003    29    51  -5.93   4.01  -0.00   -4.91   20.43   82.57  1.100 -0.550 0 2 0 2  0.417  0.417 330.16    0.00     0.00    0.00   1   90.00     0    0    0   110 2400.0  1   1    8    0   0.000    0.000    0.000  1
 12   1    1  1 0 0    11  16    79  576  576     0.00000   5.87473 1.09799e-003    30    53  -5.93   4.01  -0.00   -4.94   20.37   82.02  1.100 -0.550 0 2 0 2  0.417  0.417 330.16    0.00     0.00    0.00   1   90.00     0    0    0   110 2400.0  1   1    8    0   0.000    0.000    0.000  1
 13   1    1  1 0 0    12  16    79  576  576     0.00000   5.87473 1.09799e-003    31    54  -5.93   4.01  -0.00   -4.98   20.32   81.48  1.100 -0.550 0 2 0 2  0.417  0.417 330.16    0.00     0.00    0.00   1   90.00     0    0    0   110 2400.0  1   1    8    0   0.000    0.000    0.000  1
 14   1    1  1 0 0    13  16    79  576  576     0.00000   5.87473 1.09799e-003    32    56  -5.93   4.01  -0.00   -5.02   20.26   80.93  1.100 -0.550 0 2 0 2  0.417  0.417 330.16    0.00     0.00    0.00   1   90.00     0    0    0   110 2400.0  1   1    8    0   0.000    0.000    0.000  1
 15   1    1  1 0 0    14  16    79  576  576     0.00000   5.87473 1.09799e-003    36    62  -5.93   4.01  -0.00   -5.06   20.20   80.39  1.100 -0.550 0 2 0 2  0.417  0.417 330.16    0.00     0.00    0.00   1   90.00     0    0    0   110 2400.0  1   1    8    0   0.000    0.000    0.000  1
 16   1    1  1 0 0    15  16    79  576  576     0.00000   5.87473 1.09799e-003    38    67  -5.93   4.01  -0.00   -5.10   20.15   79.84  1.100 -0.550 0 2 0 2  0.417  0.417 330.16    0.00     0.00    0.00   1   90.00     0    0    0   110 2400.0  1   1    8    0   0.000    0.000    0.000  1
 17   1    1  1 0 0    16  16    79  576  576     0.00000   5.87473 1.09799e-003    41    71  -5.93   4.01  -0.00   -5.14   20.09   79.29  1.100 -0.550 0 2 0 2  0.417  0.417 330.16    0.00     0.00    0.00   1   90.00     0    0    0   110 2400.0  1   1    8    0   0.000    0.000    0.000  1
 18   1    1  1 0 0    17  16    79  576  576     0.00000   5.87473 1.09799e-003    42    73  -5.93   4.01  -0.00   -5.18   20.03   78.75  1.100 -0.550 0 2 0 2  0.417  0.417 330.16    0.00     0.00    0.00   1   90.00     0    0    0   110 2400.0  1   1    8    0   0.000    0.000    0.000  1
 19   1    1  1 0 0    18  16    79  576  576     0.00000   5.87473 1.09799e-003    53    92  -5.93   4.01  -0.00   -5.21   19.98   78.20  1.100 -0.550 0 2 0 2  0.417  0.417 330.16    0.00     0.00    0.00   1   90.00     0    0    0   110 2400.0  1   1    8    0   0.000    0.000    0.000  1
 20   1    1  1 0 0    19  16    79  576  576     0.00000   5.87473 1.09799e-003    96   168  -5.93   4.01  -0.00   -5.25   19.92   77.66  1.100 -0.550 0 2 0 2  0.417  0.417 330.16    0.00     0.00    0.00   1   90.00     0    0    0   110 2400.0  1   1    8    0   0.000    0.000    0.000  1
 21   1    1  1 0 0    20  16    79  576  576     0.00000   5.87473 1.09799e-003   178   310  -5.93   4.01  -0.00   -5.29   19.86   77.11  1.100 -0.550 0 2 0 2  0.417  0.417 330.16    0.00     0.00    0.00   1   90.00     0    0    0   110 2400.0  1   1    8    0   0.000    0.000    0.000  1
 22   1    1  1 0 0    21  16    79  576  576     0.00000   5.87473 1.09799e-003   255   443  -5.93   4.01  -0.00   -5.33   19.81   76.57  1.100 -0.550 0 2 0 2  0.417  0.417 330.16    0.00     0.00    0.00   1   90.00     0    0    0   110 2400.0  1   1    8    0   0.000    0.000    0.000  1
 23   1    1  1 0 0    22  16    79  576  576     0.00000   5.87473 1.09799e-003   316   549  -5.93   4.01  -0.00   -5.37   19.75   76.02  1.100 -0.550 0 2 0 2  0.417  0.417 330.16    0.00     0.00    0.00   1   90.00     0    0    0   110 2400.0  1   1    8    0   0.000    0.000    0.000  1
 24   1    1  1 0 0    23  16    79  576  576     0.00000   5.87473 1.09799e-003   376   654  -5.93   4.01  -0.00   -5.41   19.69   75.47  1.100 -0.550 0 2 0 2  0.417  0.417 330.16    0.00     0.00    0.00   1   90.00     0    0    0   110 2400.0  1   1    8    0   0.000    0.000    0.000  1
 25   1    1  1 0 0    24  16    79  576  576     0.00000   5.87473 1.09799e-003   409   711  -5.93   4.01  -0.00   -5.44   19.64   74.93  1.100 -0.550 0 2 0 2  0.417  0.417 330.16    0.00     0.00    0.00   1   90.00     0    0    0   110 2400.0  1   1    8    0   0.000    0.000    0.000  1
 26   1    1  1 0 0    25  16    79  576  576     0.00000   5.87473 1.09799e-003   438   761  -5.93   4.01  -0.00   -5.48   19.58   74.38  1.100 -0.550 0 2 0 2  0.417  0.417 330.16    0.00     0.00    0.00   1   90.00     0    0    0   110 2400.0  1   1    8    0   0.000    0.000    0.000  1
 27   1    1  1 0 0    26  16    79  576  576     0.00000   5.87473 1.09799e-003   444   773  -5.93   4.01  -0.00   -5.52   19.52   73.84  1.100 -0.550 0 2 0 2  0.417  0.417 330.16    0.00     0.00    0.00   1   90.00     0    0    0   110 2400.0  1   1    8    0   0.000    0.000    0.000  1
 28   1    1  1 0 0    27  16    79  576  576     0.00000   5.87473 1.09799e-003   440   765  -5.93   4.01  -0.00   -5.56   19.47   73.29  1.100 -0.550 0 2 0 2  0.417  0.417 330.16    0.00     0.00    0.00   1   90.00     0    0    0   110 2400.0  1   1    8    0   0.000    0.000    0.000  1
 29   1    1  1 0 0    28  16    79  576  576     0.00000   5.87473 1.09799e-003   426   741  -5.93   4.01  -0.00   -5.60   19.41   72.75  1.100 -0.550 0 2 0 2  0.417  0.417 330.16    0.00     0.00    0.00   1   90.00     0    0    0   110 2400.0  1   1    8    0   0.000    0.000    0.000  1
 30   1    1  1 0 0    29  16    79  576  576     0.00000   5.87473 1.09799e-003   392   681  -5.93   4.01  -0.00   -5.64   19.35   72.20  1.100 -0.550 0 2 0 2  0.417  0.417 330.16    0.00     0.00    0.00   1   90.00     0    0    0   110 2400.0  1   1    8    0   0.000    0.000    0.000  1
 31   1    1  1 0 0    30  16    79  576  576     0.00000   5.87473 1.09799e-003   387   673  -5.93   4.01  -0.00   -5.68   19.30   71.65  1.100 -0.550 0 2 0 2  0.417  0.417 330.16    0.00     0.00    0.00   1   90.00     0    0    0   110 2400.0  1   1    8    0   0.000    0.000    0.000  1
 32   1    1  1 0 0    31  16    79  576  576     0.00000   5.87473 1.09799e-003   390   679  -5.93   4.01  -0.00   -5.71   19.24   71.11  1.100 -0.550 0 2 0 2  0.417  0.417 330.16    0.00     0.00    0.00   1   90.00     0    0    0   110 2400.0  1   1    8    0   0.000    0.000    0.000  1
 33   1    1  1 0 0    32  16    79  576  576     0.00000   5.87473 1.09799e-003   426   740  -5.93   4.01  -0.00   -5.75   19.18   70.56  1.100 -0.550 0 2 0 2  0.417  0.417 330.16    0.00     0.00    0.00   1   90.00     0    0    0   110 2400.0  1   1    8    0   0.000    0.000    0.000  1
 34   1    1  1 0 0    33  16    79  576  576     0.00000   5.87473 1.09799e-003   451   784  -5.93   4.01  -0.00   -5.79   19.13   70.02  1.100 -0.550 0 2 0 2  0.417  0.417 330.16    0.00     0.00    0.00   1   90.00     0    0    0   110 2400.0  1   1    8    0   0.000    0.000    0.000  1
 35   1    1  1 0 0    34  16    79  576  576     0.00000   5.87473 1.09799e-003   483   840  -5.93   4.01  -0.00   -5.83   19.07   69.47  1.100 -0.550 0 2 0 2  0.417  0.417 330.16    0.00     0.00    0.00   1   90.00     0    0    0   110 2400.0  1   1    8    0   0.000    0.000    0.000  1
 36   1    1  1 0 0    35  16    79  576  576     0.00000   5.87473 1.09799e-003   496   861  -5.93   4.01  -0.00   -5.87   19.01   68.93  1.100 -0.550 0 2 0 2  0.417  0.417 330.16    0.00     0.00    0.00   1   90.00     0    0    0   110 2400.0  1   1    8    0   0.000    0.000    0.000  1
 37   1    1  1 0 0    36  16    79  576  576     0.00000   5.87473 1.09799e-003   513   892  -5.93   4.01  -0.00   -5.91   18.96   68.38  1.100 -0.550 0 2 0 2  0.417  0.417 330.16    0.00     0.00    0.00   1   90.00     0    0    0   110 2400.0  1   1    8    0   0.000    0.000    0.000  1
 38   1    1  1 0 0    37  16    79  576  576     0.00000   5.87473 1.09799e-003   545   948  -5.93   4.01  -0.00   -5.94   18.90   67.83  1.100 -0.550 0 2 0 2  0.417  0.417 330.16    0.00     0.00    0.00   1   90.00     0    0    0   110 2400.0  1   1    8    0   0.000    0.000    0.000  1
 39   1    1  1 0 0    38  16    79  576  576     0.00000   5.87473 1.09799e-003   556   967  -5.93   4.01  -0.00   -5.98   18.84   67.29  1.100 -0.550 0 2 0 2  0.417  0.417 330.16    0.00     0.00    0.00   1   90.00     0    0    0   110 2400.0  1   1    8    0   0.000    0.000    0.000  1
 40   1    1  1 0 0    39  16    79  576  576     0.00000   5.87473 1.09799e-003   565   983  -5.93   4.01  -0.00   -6.02   18.79   66.74  1.100 -0.550 0 2 0 2  0.417  0.417 330.16    0.00     0.00    0.00   1   90.00     0    0    0   110 2400.0  1   1    8    0   0.000    0.000    0.000  1
 41   1    1  1 0 0    40  16    79  576  576     0.00000   5.87473 1.09799e-003   552   960  -5.93   4.01  -0.00   -6.06   18.73   66.20  1.100 -0.550 0 2 0 2  0.417  0.417 330.16    0.00     0.00    0.00   1   90.00     0    0    0   110 2400.0  1   1    8    0   0.000    0.000    0.000  1
 42   1    1  1 0 0    41  16    79  576  576     0.00000   5.87473 1.09799e-003   551   958  -5.93   4.01  -0.00   -6.10   18.67   65.65  1.100 -0.550 0 2 0 2  0.417  0.417 330.16    0.00     0.00    0.00   1   90.00     0    0    0   110 2400.0  1   1    8    0   0.000    0.000    0.000  1
 43   1    1  1 0 0    42  16    79  576  576     0.00000   5.87473 1.09799e-003   567   986  -5.93   4.01  -0.00   -6.14   18.62   65.11  1.100 -0.550 0 2 0 2  0.417  0.417 330.16    0.00     0.00    0.00   1   90.00     0    0    0   110 2400.0  1   1    8    0   0.000    0.000    0.000  1
 44   1    1  1 0 0    43  16    79  576  576     0.00000   5.87473 1.09799e-003   570   991  -5.93   4.01  -0.00   -6.18   18.56   64.56  1.100 -0.550 0 2 0 2  0.417  0.417 330.16    0.00     0.00    0.00   1   90.00     0    0    0   110 2400.0  1   1    8    0   0.000    0.000    0.000  1
 45   1    1  1 0 0    44  16    79  576  576     0.00000   5.87473 1.09799e-003   600  1044  -5.93   4.01  -0.00   -6.21   18.50   64.01  1.100 -0.550 0 2 0 2  0.417  0.417 330.16    0.00     0.00    0.00   1   90.00     0    0    0   110 2400.0  1   1    8    0   0.000    0.000    0.000  1
 46   1    1  1 0 0    45  16    79  576  576     0.00000   5.87473 1.09799e-003   613  1066  -5.93   4.01  -0.00   -6.25   18.45   63.47  1.100 -0.550 0 2 0 2  0.417  0.417 330.16    0.00     0.00    0.00   1   90.00     0    0    0   110 2400.0  1   1    8    0   0.000    0.000    0.000  1
 47   1    1  1 0 0    46  16    79  576  576     0.00000   5.87473 1.09799e-003   591  1027  -5.93   4.01  -0.00   -6.29   18.39   62.92  1.100 -0.550 0 2 0 2  0.417  0.417 330.16    0.00     0.00    0.00   1   90.00     0    0    0   110 2400.0  1   1    8    0   0.000    0.000    0.000  1
 48   1    1  1 0 0    47  16    79  576  576     0.00000   5.87473 1.09799e-003   543   945  -5.93   4.01  -0.00   -6.33   18.33   62.38  1.100 -0.550 0 2 0 2  0.417  0.417 330.16    0.00     0.00    0.00   1   90.00     0    0    0   110 2400.0  1   1    8    0   0.000    0.000    0.000  1
 49   1    1  1 0 0    48  16    79  576  576     0.00000   5.87473 1.09799e-003   565   982  -5.93   4.01  -0.00   -6.37   18.28   61.83  1.100 -0.550 0 2 0 2  0.417  0.417 330.16    0.00     0.00    0.00   1   90.00     0    0    0   110 2400.0  1   1    8    0   0.000    0.000    0.000  1
 50   1    1  1 0 0    49  16    79  576  576     0.00000   5.87473 1.09799e-003   580  1008  -5.93   4.01  -0.00   -6.41   18.22   61.29  1.100 -0.550 0 2 0 2  0.417  0.417 330.16    0.00     0.00    0.00   1   90.00     0    0    0   110 2400.0  1   1    8    0   0.000    0.000    0.000  1
 51   1    1  1 0 0    50  16    79  576  576     0.00000   5.87473 1.09799e-003   592  1029  -5.93   4.01  -0.00   -6.44   18.16   60.74  1.100 -0.550 0 2 0 2  0.417  0.417 330.16    0.00     0.00    0.00   1   90.00     0    0    0   110 2400.0  1   1    8    0   0.000    0.000    0.000  1
 52   1    1  1 0 0    51  16    79  576  576     0.00000   5.87473 1.09799e-003   604  1050  -5.93   4.01  -0.00   -6.48   18.11   60.19  1.100 -0.550 0 2 0 2  0.417  0.417 330.16    0.00     0.00    0.00   1   90.00     0    0    0   110 2400.0  1   1    8    0   0.000    0.000    0.000  1
 53   1    1  1 0 0    52  16    79  576  576     0.00000   5.87473 1.09799e-003   631  1097  -5.93   4.01  -0.00   -6.52   18.05   59.65  1.100 -0.550 0 2 0 2  0.417  0.417 330.16    0.00     0.00    0.00   1   90.00     0    0    0   110 2400.0  1   1    8    0   0.000    0.000    0.000  1
 54   1    1  1 0 0    53  16    79  576  576     0.00000   5.87473 1.09799e-003   645  1121  -5.93   4.01  -0.00   -6.56   17.99   59.10  1.100 -0.550 0 2 0 2  0.417  0.417 330.16    0.00     0.00    0.00   1   90.00     0    0    0   110 2400.0  1   1    8    0   0.000    0.000    0.000  1
 55   1    1  1 0 0    54  16    79  576  576     0.00000   5.87473 1.09799e-003   643  1118  -5.93   4.01  -0.00   -6.60   17.94   58.56  1.100 -0.550 0 2 0 2  0.417  0.417 330.16    0.00     0.00    0.00   1   90.00     0    0    0   110 2400.0  1   1    8    0   0.000    0.000    0.000  1
 56   1    1  1 0 0    55  16    79  576  576     0.00000   5.87473 1.09799e-003   642  1116  -5.93   4.01  -0.00   -6.64   17.88   58.01  1.100 -0.550 0 2 0 2  0.417  0.417 330.16    0.00     0.00    0.00   1   90.00     0    0    0   110 2400.0  1   1    8    0   0.000    0.000    0.000  1
 57   1    1  1 0 0    56  16    79  576  576     0.00000   5.87473 1.09799e-003   641  1114  -5.93   4.01  -0.00   -6.68   17.82   57.47  1.100 -0.550 0 2 0 2  0.417  0.417 330.16    0.00     0.00    0.00   1   90.00     0    0    0   110 2400.0  1   1    8    0   0.000    0.000    0.000  1
 58   1    1  1 0 0    57  16    79  576  576     0.00000   5.87473 1.09799e-003   648  1126  -5.93   4.01  -0.00   -6.71   17.77   56.92  1.100 -0.550 0 2 0 2  0.417  0.417 330.16    0.00     0.00    0.00   1   90.00     0    0    0   110 2400.0  1   1    8    0   0.000    0.000    0.000  1
 59   1    1  1 0 0    58  16    79  576  576     0.00000   5.87473 1.09799e-003   652  1134  -5.93   4.01  -0.00   -6.75   17.71   56.37  1.100 -0.550 0 2 0 2  0.417  0.417 330.16    0.00     0.00    0.00   1   90.00     0    0    0   110 2400.0  1   1    8    0   0.000    0.000    0.000  1
 60   1    1  1 0 0    59  16    79  576  576     0.00000   5.87473 1.09799e-003   651  1132  -5.93   4.01  -0.00   -6.79   17.65   55.83  1.100 -0.550 0 2 0 2  0.417  0.417 330.16    0.00     0.00    0.00   1   90.00     0    0    0   110 2400.0  1   1    8    0   0.000    0.000    0.000  1
 61   1    1  1 0 0    60  16    79  576  576     0.00000   5.87473 1.09799e-003   647  1125  -5.93   4.01  -0.00   -6.83   17.60   55.28  1.100 -0.550 0 2 0 2  0.417  0.417 330.16    0.00     0.00    0.00   1   90.00     0    0    0   110 2400.0  1   1    8    0   0.000    0.000    0.000  1
 62   1    1  1 0 0    61  16    79  576  576     0.00000   5.87473 1.09799e-003   649  1128  -5.93   4.01  -0.00   -6.87   17.54   54.74  1.100 -0.550 0 2 0 2  0.417  0.417 330.16    0.00     0.00    0.00   1   90.00     0    0    0   110 2400.0  1   1    8    0   0.000    0.000    0.000  1
 63   1    1  1 0 0    62  16    79  576  576     0.00000   5.87473 1.09799e-003   642  1116  -5.93   4.01  -0.00   -6.91   17.48   54.19  1.100 -0.550 0 2 0 2  0.417  0.417 330.16    0.00     0.00    0.00   1   90.00     0    0    0   110 2400.0  1   1    8    0   0.000    0.000    0.000  1
 64   1    1  1 0 0    63  16    79  576  576     0.00000   5.87473 1.09799e-003   652  1134  -5.93   4.01  -0.00   -6.94   17.43   53.65  1.100 -0.550 0 2 0 2  0.417  0.417 330.16    0.00     0.00    0.00   1   90.00     0    0    0   110 2400.0  1   1    8    0   0.000    0.000    0.000  1
 65   1    1  1 0 0    64  16    79  576  576     0.00000   5.87473 1.09799e-003   655  1139  -5.93   4.01  -0.00   -6.98   17.37   53.10  1.100 -0.550 0 2 0 2  0.417  0.417 330.16    0.00     0.00    0.00   1   90.00     0    0    0   110 2400.0  1   1    8    0   0.000    0.000    0.000  1
 66   1    1  1 0 0    65  16    79  576  576     0.00000   5.87473 1.09799e-003   652  1133  -5.93   4.01  -0.00   -7.02   17.31   52.55  1.100 -0.550 0 2 0 2  0.417  0.417 330.16    0.00     0.00    0.00   1   90.00     0    0    0   110 2400.0  1   1    8    0   0.000    0.000    0.000  1
 67   1    1  1 0 0    66  16    79  576  576     0.00000   5.87473 1.09799e-003   655  1139  -5.93   4.01  -0.00   -7.06   17.26   52.01  1.100 -0.550 0 2 0 2  0.417  0.417 330.16    0.00     0.00    0.00   1   90.00     0    0    0   110 2400.0  1   1    8    0   0.000    0.000    0.000  1
 68   1    1  1 0 0    67  16    79  576  576     0.00000   5.87473 1.09799e-003   657  1143  -5.93   4.01  -0.00   -7.10   17.20   51.46  1.100 -0.550 0 2 0 2  0.417  0.417 330.16    0.00     0.00    0.00   1   90.00     0    0    0   110 2400.0  1   1    8    0   0.000    0.000    0.000  1
 69   1    1  1 0 0    68  16    79  576  576     0.00000   5.87473 1.09799e-003   660  1147  -5.93   4.01  -0.00   -7.14   17.14   50.92  1.100 -0.550 0 2 0 2  0.417  0.417 330.16    0.00     0.00    0.00   1   90.00     0    0    0   110 2400.0  1   1    8    0   0.000    0.000    0.000  1
 70   1    1  1 0 0    69  16    79  576  576     0.00000   5.87473 1.09799e-003   669  1164  -5.93   4.01  -0.00   -7.17   17.09   50.37  1.100 -0.550 0 2 0 2  0.417  0.417 330.16    0.00     0.00    0.00   1   90.00     0    0    0   110 2400.0  1   1    8    0   0.000    0.000    0.000  1
 71   1    1  1 0 0    70  16    79  576  576     0.00000   5.87473 1.09799e-003   686  1192  -5.93   4.01  -0.00   -7.21   17.03   49.83  1.100 -0.550 0 2 0 2  0.417  0.417 330.16    0.00     0.00    0.00   1   90.00     0    0    0   110 2400.0  1   1    8    0   0.000    0.000    0.000  1
 72   1    1  1 0 0    71  16    79  576  576     0.00000   5.87473 1.09799e-003   718  1248  -5.93   4.01  -0.00   -7.25   16.97   49.28  1.100 -0.550 0 2 0 2  0.417  0.417 330.16    0.00     0.00    0.00   1   90.00     0    0    0   110 2400.0  1   1    8    0   0.000    0.000    0.000  1
 73   1    1  1 0 0    72  16    79  576  576     0.00000   5.87473 1.09799e-003   783  1361  -5.93   4.01  -0.00   -7.29   16.92   48.73  1.100 -0.550 0 2 0 2  0.417  0.417 330.16    0.00     0.00    0.00   1   90.00     0    0    0   110 2400.0  1   1    8    0   0.000    0.000    0.000  1
 74   1    1  1 0 0    73  16    79  576  576     0.00000   5.87473 1.09799e-003   856  1488  -5.93   4.01  -0.00   -7.33   16.86   48.19  1.100 -0.550 0 2 0 2  0.417  0.417 330.16    0.00     0.00    0.00   1   90.00     0    0    0   110 2400.0  1   1    8    0   0.000    0.000    0.000  1
 75   1    1  1 0 0    74  16    79  576  576     0.00000   5.87473 1.09799e-003   929  1616  -5.93   4.01  -0.00   -7.37   16.80   47.64  1.100 -0.550 0 2 0 2  0.417  0.417 330.16    0.00     0.00    0.00   1   90.00     0    0    0   110 2400.0  1   1    8    0   0.000    0.000    0.000  1
 76   1    1  1 0 0    75  16    79  576  576     0.00000   5.87473 1.09799e-003   995  1730  -5.93   4.01  -0.00   -7.41   16.75   47.10  1.100 -0.550 0 2 0 2  0.417  0.417 330.16    0.00     0.00    0.00   1   90.00     0    0    0   110 2400.0  1   1    8    0   0.000    0.000    0.000  1
 77   1    1  1 0 0    76  16    79  576  576     0.00000   5.87473 1.09799e-003  1068  1857  -5.93   4.01  -0.00   -7.44   16.69   46.55  1.100 -0.550 0 2 0 2  0.417  0.417 330.16    0.00     0.00    0.00   1   90.00     0    0    0   110 2400.0  1   1    8    0   0.000    0.000    0.000  1
 78   1    1  1 0 0    77  16    79  576  576     0.00000   5.87473 1.09799e-003  1134  1971  -5.93   4.01  -0.00   -7.48   16.63   46.01  1.100 -0.550 0 2 0 2  0.417  0.417 330.16    0.00     0.00    0.00   1   90.00     0    0    0   110 2400.0  1   1    8    0   0.000    0.000    0.000  1
 79   1    1  1 0 0    78  16    79  576  576     0.00000   5.87473 1.09799e-003  1169  2033  -5.93   4.01  -0.00   -7.52   16.58   45.46  1.100 -0.550 0 2 0 2  0.417  0.417 330.16    0.00     0.00    0.00   1   90.00     0    0    0   110 2400.0  1   1    8    0   0.000    0.000    0.000  1
 80   1    1  1 0 0    79  16    79  576  576     0.00000   5.87473 1.09799e-003  1202  2089  -5.93   4.01  -0.00   -7.56   16.52   44.91  1.100 -0.550 0 2 0 2  0.417  0.417 330.16    0.00     0.00    0.00   1   90.00     0    0    0   110 2400.0  1   1    8    0   0.000    0.000    0.000  1
 81   1    1  1 0 0    80  16    79  576  576     0.00000   5.87473 1.09799e-003  1216  2114  -5.93   4.01  -0.00   -7.60   16.46   44.37  1.100 -0.550 0 2 0 2  0.417  0.417 330.16    0.00     0.00    0.00   1   90.00     0    0    0   110 2400.0  1   1    8    0   0.000    0.000    0.000  1
 82   1    1  1 0 0    81  16    79  576  576     0.00000   5.87473 1.09799e-003  1223  2126  -5.93   4.01  -0.00   -7.64   16.41   43.82  1.100 -0.550 0 2 0 2  0.417  0.417 330.16    0.00     0.00    0.00   1   90.00     0    0    0   110 2400.0  1   1    8    0   0.000    0.000    0.000  1
 83   1    1  1 0 0    82  16    79  576  576     0.00000   5.87473 1.09799e-003  1237  2150  -5.93   4.01  -0.00   -7.67   16.35   43.28  1.100 -0.550 0 2 0 2  0.417  0.417 330.16    0.00     0.00    0.00   1   90.00     0    0    0   110 2400.0  1   1    8    0   0.000    0.000    0.000  1
 84   1    1  1 0 0    83  16    79  576  576     0.00000   5.87473 1.09799e-003  1258  2186  -5.93   4.01  -0.00   -7.71   16.29   42.73  1.100 -0.550 0 2 0 2  0.417  0.417 330.16    0.00     0.00    0.00   1   90.00     0    0    0   110 2400.0  1   1    8    0   0.000    0.000    0.000  1
